0 26368 26176 31888 28896 31584
1 27328 26432 31888 28896 31584
2 27200 26368 31888 28896 31584
3 27584 25664 31888 28896 31584
4 28096 26368 31888 28896 31584
5 28480 26048 31888 28896 31584
6 28608 25664 31888 28896 31584
7 28992 25728 31888 28896 31584
8 29184 25472 31888 28896 31584
9 29184 26048 31888 28896 31584
10 29760 26048 31536 26944 31008
11 29888 26240 31536 26944 31008
12 29760 26176 31536 26944 31008
13 30016 26304 31536 26944 31008
14 29952 26752 31536 26944 31008
15 29504 26688 31536 26944 31008
16 29120 26624 31536 26944 31008
17 28736 26240 31536 26944 31008
18 28416 26240 31536 26944 31008
19 28288 26304 31536 26944 31008
20 27584 26240 31536 26944 31008
21 27520 26176 31536 26944 31008
22 27584 26432 31536 26944 31008
23 27648 26496 31536 26944 31008
24 27520 26432 31536 26944 31008
25 27648 26368 31536 26944 31008
26 27840 26624 31536 26944 31008
27 27584 26880 31536 26944 31008
28 28416 26816 31536 26944 31008
29 28288 26560 31536 26944 31008
30 28608 26816 31104 25024 30336
31 28480 26816 31104 25024 30336
32 28352 26688 31104 25024 30336
33 28416 26560 31104 25024 30336
34 28544 26368 31104 25024 30336
35 28608 26368 31104 25024 30336
36 28736 26432 31104 25024 30336
37 28992 26432 31104 25024 30336
38 28544 27008 31104 25024 30336
39 28672 26944 31104 25024 30336
40 28672 26688 31152 25024 30336
41 28672 26816 31152 25024 30336
42 28672 25920 31152 25024 30336
43 29120 26112 31152 25024 30336
44 28736 26112 31152 25024 30336
45 28160 25536 31152 25024 30336
46 29120 25664 31152 25024 30336
47 29312 25280 31152 25024 30336
48 29248 24576 31152 25024 30336
49 28992 24512 31152 25024 30336
50 28992 24640 31088 25008 30384
51 28480 24384 31088 25008 30384
52 28928 24576 31088 25008 30384
53 29120 24832 31088 25008 30384
54 28736 24448 31088 25008 30384
55 29056 24640 31088 25008 30384
56 29120 24576 31088 25008 30384
57 28608 24704 31088 25008 30384
58 29248 24384 31088 25008 30384
59 29440 24448 31088 25008 30384
60 29440 24320 31088 25008 30384
61 28928 24384 31088 25008 30384
62 29312 24448 31088 25008 30384
63 29440 24256 31088 25008 30384
64 30272 24192 31088 25008 30384
65 29696 24064 31088 25008 30384
66 30016 24256 31088 25008 30384
67 29760 24384 31088 25008 30384
68 30016 24192 31088 25008 30384
69 30272 24384 31088 25008 30384
70 30080 23872 31168 24928 30464
71 29248 24128 31168 24928 30464
72 29120 24064 31168 24928 30464
73 28608 23872 31168 24928 30464
74 29312 24064 31168 24928 30464
75 28800 24192 31168 24928 30464
76 29248 24384 31168 24928 30464
77 28928 24256 31168 24928 30464
78 28992 24192 31168 24928 30464
79 33088 24128 31168 24928 30464
80 40704 23872 31152 24944 30400
81 45376 23872 31152 24944 30400
82 35712 24576 31152 24944 30400
83 23168 24640 31152 24944 30400
84 20224 24064 31152 24944 30400
85 25152 23872 31152 24944 30400
86 26688 23936 31152 24944 30400
87 27584 23872 31152 24944 30400
88 28992 23680 31152 24944 30400
89 30208 24192 31152 24944 30400
90 29888 23872 31168 25024 30384
91 30080 24192 31168 25024 30384
92 30016 23808 31168 25024 30384
93 30080 24064 31168 25024 30384
94 30208 23872 31168 25024 30384
95 30400 23616 31168 25024 30384
96 30272 23680 31168 25024 30384
97 30720 23744 31168 25024 30384
98 30528 24320 31168 25024 30384
99 30656 24320 31168 25024 30384
100 30592 24128 31104 25024 30368
101 30784 24128 31104 25024 30368
102 30656 23936 31104 25024 30368
103 31040 24000 31104 25024 30368
104 31296 24512 31104 25024 30368
105 31296 24000 31104 25024 30368
106 31616 24064 31104 25024 30368
107 31808 23872 31104 25024 30368
108 32192 23680 31104 25024 30368
109 32320 24192 31104 25024 30368
110 32320 23872 31152 24976 30416
111 32256 23872 31152 24976 30416
112 32512 24192 31152 24976 30416
113 32512 25344 31152 24976 30416
114 32000 25536 31152 24976 30416
115 32384 27008 31152 24976 30416
116 32256 28864 31152 24976 30416
117 32576 30080 31152 24976 30416
118 31232 30720 31152 24976 30416
119 30976 31232 31152 24976 30416
120 30592 32000 31152 24976 30416
121 30080 32000 31152 24976 30416
122 30016 31680 31152 24976 30416
123 29696 31168 31152 24976 30416
124 29824 30400 31152 24976 30416
125 29632 29568 31152 24976 30416
126 29632 29568 31152 24976 30416
127 29632 29120 31152 24976 30416
128 29760 28544 31152 24976 30416
129 29952 27584 31152 24976 30416
130 29888 26880 31168 25040 30448
131 30400 27200 31168 25040 30448
132 29824 26816 31168 25040 30448
133 30400 25984 31168 25040 30448
134 30144 25664 31168 25040 30448
135 30272 25728 31168 25040 30448
136 30016 24960 31168 25040 30448
137 30208 25280 31168 25040 30448
138 30208 25216 31168 25040 30448
139 30272 25216 31168 25040 30448
140 30464 25024 31264 24992 30400
141 30528 24896 31264 24992 30400
142 30208 24960 31264 24992 30400
143 30208 25152 31264 24992 30400
144 30144 24768 31264 24992 30400
145 30272 24768 31264 24992 30400
146 30272 24640 31264 24992 30400
147 29888 24704 31264 24992 30400
148 29632 24576 31264 24992 30400
149 29952 24768 31264 24992 30400
150 29824 24832 31200 25024 30400
151 30144 24896 31200 25024 30400
152 30016 25024 31200 25024 30400
153 30080 24768 31200 25024 30400
154 30144 25024 31200 25024 30400
155 31360 24896 31200 25024 30400
156 30528 24576 31200 25024 30400
157 30784 25024 31200 25024 30400
158 30592 25088 31200 25024 30400
159 30912 25088 31200 25024 30400
160 30464 25152 31184 25024 30400
161 30656 24832 31184 25024 30400
162 30080 25344 31184 25024 30400
163 29760 25088 31184 25024 30400
164 29696 25344 31184 25024 30400
165 29888 25536 31184 25024 30400
166 29376 25024 31184 25024 30400
167 28992 26240 31184 25024 30400
168 29696 26944 31184 25024 30400
169 29632 26944 31184 25024 30400
170 34304 28032 31184 25024 30400
171 41664 27904 31184 25024 30400
172 45888 27968 31184 25024 30400
173 35200 27968 31184 25024 30400
174 23936 28352 31184 25024 30400
175 22080 27968 31184 25024 30400
176 26816 27840 31184 25024 30400
177 27520 27392 31184 25024 30400
178 28352 27584 31184 25024 30400
179 29824 27328 31184 25024 30400
180 30464 27200 31264 25088 30336
181 30592 27456 31264 25088 30336
182 30656 27264 31264 25088 30336
183 30464 27200 31264 25088 30336
184 30720 27456 31264 25088 30336
185 30528 27136 31264 25088 30336
186 30528 27392 31264 25088 30336
187 30784 27776 31264 25088 30336
188 31040 27776 31264 25088 30336
189 31040 28416 31264 25088 30336
190 30784 27840 31280 25056 30384
191 30976 28352 31280 25056 30384
192 31104 28160 31280 25056 30384
193 31616 28352 31280 25056 30384
194 31232 27968 31280 25056 30384
195 31616 28096 31280 25056 30384
196 32128 28224 31280 25056 30384
197 31744 27712 31280 25056 30384
198 32576 28544 31280 25056 30384
199 32448 28544 31280 25056 30384
200 32960 28864 31232 24992 30368
201 32832 28864 31232 24992 30368
202 33216 28992 31232 24992 30368
203 33280 28864 31232 24992 30368
204 33024 29120 31232 24992 30368
205 33088 29376 31232 24992 30368
206 32960 29440 31232 24992 30368
207 32576 29440 31232 24992 30368
208 32640 29440 31232 24992 30368
209 32576 28928 31232 24992 30368
210 31424 29760 31200 25024 30368
211 31232 29696 31200 25024 30368
212 30656 29504 31200 25024 30368
213 30400 29824 31200 25024 30368
214 30208 29632 31200 25024 30368
215 30464 29568 31200 25024 30368
216 30336 29696 31200 25024 30368
217 30336 29568 31200 25024 30368
218 30336 30016 31200 25024 30368
219 30208 30144 31200 25024 30368
220 30336 30208 31200 25024 30368
221 30720 30400 31200 25024 30368
222 30464 30272 31200 25024 30368
223 31296 30528 31200 25024 30368
224 30912 30336 31200 25024 30368
225 30912 30464 31200 25024 30368
226 30784 30272 31200 25024 30368
227 30656 30272 31200 25024 30368
228 30912 30592 31200 25024 30368
229 31104 30592 31200 25024 30368
230 30464 30656 31200 25040 30400
231 30592 30528 31200 25040 30400
232 31040 30656 31200 25040 30400
233 31104 31296 31200 25040 30400
234 30336 30912 31200 25040 30400
235 30720 31168 31200 25040 30400
236 30848 30784 31200 25040 30400
237 30656 30720 31200 25040 30400
238 30400 30848 31200 25040 30400
239 30464 31296 31200 25040 30400
240 30400 30848 31184 25056 30464
241 30912 31168 31184 25056 30464
242 30784 30848 31184 25056 30464
243 31040 30464 31184 25056 30464
244 30144 29568 31184 25056 30464
245 30528 29632 31184 25056 30464
246 31040 29376 31184 25056 30464
247 31744 29248 31184 25056 30464
248 32256 29248 31184 25056 30464
249 31552 29184 31184 25056 30464
250 32000 29184 31136 25024 30432
251 31296 29248 31136 25024 30432
252 32320 29696 31136 25024 30432
253 31616 29696 31136 25024 30432
254 31616 29760 31136 25024 30432
255 30848 29376 31136 25024 30432
256 30528 29376 31136 25024 30432
257 30272 29504 31136 25024 30432
258 30016 29888 31136 25024 30432
259 30720 30464 31136 25024 30432
260 30528 30208 31120 25008 30464
261 30272 30208 31120 25008 30464
262 31616 30144 31120 25008 30464
263 38912 30016 31120 25008 30464
264 45952 29952 31120 25008 30464
265 43904 30464 31120 25008 30464
266 29184 30912 31120 25008 30464
267 20928 31040 31120 25008 30464
268 23232 30528 31120 25008 30464
269 25280 30080 31120 25008 30464
270 27648 30016 31152 24992 30448
271 29248 30208 31152 24992 30448
272 30848 30656 31152 24992 30448
273 31424 30656 31152 24992 30448
274 31168 30336 31152 24992 30448
275 31616 30720 31152 24992 30448
276 31680 30784 31152 24992 30448
277 31808 30912 31152 24992 30448
278 32320 31104 31152 24992 30448
279 31808 31232 31152 24992 30448
280 32000 31104 31152 24992 30448
281 32256 30912 31152 24992 30448
282 32384 31360 31152 24992 30448
283 32640 31680 31152 24992 30448
284 32192 31488 31152 24992 30448
285 32704 31552 31152 24992 30448
286 33088 31616 31152 24992 30448
287 32960 31552 31152 24992 30448
288 33344 31808 31152 24992 30448
289 33408 31936 31152 24992 30448
290 34112 31744 31200 25088 30464
291 33856 32064 31200 25088 30464
292 34624 32448 31200 25088 30464
293 34560 32064 31200 25088 30464
294 34496 32576 31200 25088 30464
295 34752 32448 31200 25088 30464
296 34496 31936 31200 25088 30464
297 34432 32064 31200 25088 30464
298 34304 32064 31200 25088 30464
299 34304 32064 31200 25088 30464
300 34432 32192 31184 25024 30384
301 33792 31872 31184 25024 30384
302 33088 32064 31184 25024 30384
303 32704 32256 31184 25024 30384
304 32640 32832 31184 25024 30384
305 31872 32576 31184 25024 30384
306 31872 32640 31184 25024 30384
307 31424 32704 31184 25024 30384
308 31552 32896 31184 25024 30384
309 31232 32704 31184 25024 30384
310 31488 32448 31168 25008 30368
311 31424 32768 31168 25008 30368
312 31488 32512 31168 25008 30368
313 31872 32128 31168 25008 30368
314 31552 31936 31168 25008 30368
315 31936 31872 31168 25008 30368
316 31680 31936 31168 25008 30368
317 31616 32128 31168 25008 30368
318 31808 32128 31168 25008 30368
319 32000 31808 31168 25008 30368
320 32000 31808 31168 25008 30368
321 31872 31808 31168 25008 30368
322 31616 31552 31168 25008 30368
323 32192 31872 31168 25008 30368
324 31808 31360 31168 25008 30368
325 31744 32000 31168 25008 30368
326 31680 31808 31168 25008 30368
327 31360 31808 31168 25008 30368
328 31552 32064 31168 25008 30368
329 31552 32256 31168 25008 30368
330 31424 32000 31136 25024 30400
331 31488 32448 31136 25024 30400
332 31424 32512 31136 25024 30400
333 31680 32640 31136 25024 30400
334 31424 32896 31136 25024 30400
335 31232 32448 31136 25024 30400
336 31168 32640 31136 25024 30400
337 31040 32960 31136 25024 30400
338 31104 32832 31136 25024 30400
339 31488 32960 31136 25024 30400
340 31232 32960 31136 25024 30448
341 31424 33152 31136 25024 30448
342 31040 33088 31136 25024 30448
343 31552 33280 31136 25024 30448
344 32256 33600 31136 25024 30448
345 32256 32768 31136 25024 30448
346 32320 33792 31136 25024 30448
347 32640 33920 31136 25024 30448
348 32064 33728 31136 25024 30448
349 31744 33600 31136 25024 30448
350 32064 33344 31152 25040 30448
351 31488 33152 31152 25040 30448
352 30976 33536 31152 25040 30448
353 30592 33408 31152 25040 30448
354 31040 33536 31152 25040 30448
355 30656 33472 31152 25040 30448
356 30784 33600 31152 25040 30448
357 30592 33600 31152 25040 30448
358 30912 33344 31152 25040 30448
359 33024 33344 31152 25040 30448
360 40704 33344 31072 25056 30368
361 48000 33408 31072 25056 30368
362 40768 33856 31072 25056 30368
363 25792 34112 31072 25056 30368
364 19456 34048 31072 25056 30368
365 23424 33856 31072 25056 30368
366 25216 33664 31072 25056 30368
367 27968 33792 31072 25056 30368
368 30400 33920 31072 25056 30368
369 32000 34048 31072 25056 30368
370 32128 34304 31104 25024 30432
371 32256 34240 31104 25024 30432
372 32320 34048 31104 25024 30432
373 32704 34240 31104 25024 30432
374 32576 33984 31104 25024 30432
375 32512 34176 31104 25024 30432
376 32896 33920 31104 25024 30432
377 32896 34176 31104 25024 30432
378 33024 34048 31104 25024 30432
379 33344 34176 31104 25024 30432
380 33344 34176 31104 25024 30432
381 33280 34432 31104 25024 30432
382 33664 33984 31104 25024 30432
383 33856 34368 31104 25024 30432
384 33728 34240 31104 25024 30432
385 34176 33856 31104 25024 30432
386 34368 34496 31104 25024 30432
387 34880 34944 31104 25024 30432
388 34688 35712 31104 25024 30432
389 34624 36480 31104 25024 30432
390 34816 37184 31104 25024 30432
391 35136 36800 31104 25024 30432
392 35072 36096 31104 25024 30432
393 34944 35840 31104 25024 30432
394 35392 36096 31104 25024 30432
395 35072 36288 31104 25024 30432
396 34880 35712 31104 25024 30432
397 34240 35840 31104 25024 30432
398 33984 35776 31104 25024 30432
399 33600 35776 31104 25024 30432
400 32896 35712 31168 24960 30432
401 32896 35584 31168 24960 30432
402 32384 35584 31168 24960 30432
403 32256 35456 31168 24960 30432
404 31936 35392 31168 24960 30432
405 32576 35264 31168 24960 30432
406 31680 35072 31168 24960 30432
407 32064 35776 31168 24960 30432
408 32000 35456 31168 24960 30432
409 32576 35904 31168 24960 30432
410 32128 36032 31152 24960 30416
411 32320 35904 31152 24960 30416
412 32128 36160 31152 24960 30416
413 32384 36096 31152 24960 30416
414 32320 36032 31152 24960 30416
415 32576 36288 31152 24960 30416
416 32640 35776 31152 24960 30416
417 32448 35520 31152 24960 30416
418 32320 35328 31152 24960 30416
419 32512 35648 31152 24960 30416
420 32192 35456 31184 24976 30416
421 32576 35776 31184 24976 30416
422 32128 35584 31184 24976 30416
423 32128 35648 31184 24976 30416
424 32064 35840 31184 24976 30416
425 32064 36096 31184 24976 30416
426 31936 35840 31184 24976 30416
427 31808 35840 31184 24976 30416
428 31808 35712 31184 24976 30416
429 32000 35840 31184 24976 30416
430 31744 35712 31184 24976 30416
431 31744 35776 31184 24976 30416
432 32256 35904 31184 24976 30416
433 31616 35328 31184 24976 30416
434 31488 35584 31184 24976 30416
435 31936 35456 31184 24976 30416
436 32000 35392 31184 24976 30416
437 31744 35136 31184 24976 30416
438 32128 35456 31184 24976 30416
439 32000 35456 31184 24976 30416
440 32640 35584 31168 25024 30400
441 32896 35456 31168 25024 30400
442 32704 35648 31168 25024 30400
443 33280 35840 31168 25024 30400
444 32768 35712 31168 25024 30400
445 33024 35456 31168 25024 30400
446 32832 35456 31168 25024 30400
447 32448 35648 31168 25024 30400
448 31744 35328 31168 25024 30400
449 31488 35136 31168 25024 30400
450 31488 35264 31200 25024 30416
451 31872 35136 31200 25024 30416
452 31360 35328 31200 25024 30416
453 31552 35264 31200 25024 30416
454 31424 34816 31200 25024 30416
455 33792 35136 31200 25024 30416
456 41472 34752 31200 25024 30416
457 48128 35648 31200 25024 30416
458 42112 36480 31200 25024 30416
459 27392 36608 31200 25024 30416
460 20224 36096 31200 25040 30416
461 24640 35392 31200 25040 30416
462 27008 35520 31200 25040 30416
463 29248 35392 31200 25040 30416
464 31104 35584 31200 25040 30416
465 32000 35200 31200 25040 30416
466 32320 35264 31200 25040 30416
467 32768 35072 31200 25040 30416
468 32512 35520 31200 25040 30416
469 33088 35200 31200 25040 30416
470 32768 34944 31200 25056 30464
471 32896 34752 31200 25056 30464
472 32704 34752 31200 25056 30464
473 33216 35008 31200 25056 30464
474 33216 35328 31200 25056 30464
475 33152 35136 31200 25056 30464
476 33600 35392 31200 25056 30464
477 33344 35520 31200 25056 30464
478 33408 35328 31200 25056 30464
479 33472 35328 31200 25056 30464
480 33344 35136 31200 25056 30464
481 33536 35136 31200 25056 30464
482 34304 35328 31200 25056 30464
483 34240 35200 31200 25056 30464
484 34368 35264 31200 25056 30464
485 35008 35200 31200 25056 30464
486 34624 34944 31200 25056 30464
487 34880 34944 31200 25056 30464
488 34880 35072 31200 25056 30464
489 35072 35200 31200 25056 30464
490 35136 34944 31152 24992 30416
491 34752 35008 31152 24992 30416
492 35072 35136 31152 24992 30416
493 34624 35264 31152 24992 30416
494 34048 34880 31152 24992 30416
495 33536 34368 31152 24992 30416
496 33024 34624 31152 24992 30416
497 33024 34112 31152 24992 30416
498 32704 34688 31152 24992 30416
499 32128 34496 31152 24992 30416
500 32512 35200 31184 24992 30448
501 31808 34112 31184 24992 30448
502 32256 34624 31184 24992 30448
503 32128 34304 31184 24992 30448
504 31936 34112 31184 24992 30448
505 32064 34560 31184 24992 30448
506 32128 34688 31184 24992 30448
507 32320 34880 31184 24992 30448
508 32320 34624 31184 24992 30448
509 32192 34944 31184 24992 30448
510 32512 34688 31072 24992 30464
511 32640 34432 31072 24992 30464
512 32192 34368 31072 24992 30464
513 32064 33920 31072 24992 30464
514 32128 34112 31072 24992 30464
515 32128 34304 31072 24992 30464
516 32192 33856 31072 24992 30464
517 31744 34240 31072 24992 30464
518 32000 34112 31072 24992 30464
519 31936 34176 31072 24992 30464
520 31680 33984 31104 25024 30512
521 31744 33984 31104 25024 30512
522 31680 33792 31104 25024 30512
523 31872 34176 31104 25024 30512
524 31680 33728 31104 25024 30512
525 31616 33856 31104 25024 30512
526 31744 33856 31104 25024 30512
527 31552 33856 31104 25024 30512
528 31872 33984 31104 25024 30512
529 32576 33920 31104 25024 30512
530 32576 33856 31104 25008 30480
531 32448 33920 31104 25008 30480
532 32576 33600 31104 25008 30480
533 32640 34112 31104 25008 30480
534 32256 34048 31104 25008 30480
535 32384 33984 31104 25008 30480
536 31936 34432 31104 25008 30480
537 31552 34112 31104 25008 30480
538 31040 33728 31104 25008 30480
539 31360 33920 31104 25008 30480
540 30976 34176 31104 25008 30480
541 31040 34304 31104 25008 30480
542 30912 34496 31104 25008 30480
543 31360 34304 31104 25008 30480
544 31680 33856 31104 25008 30480
545 38080 34368 31104 25008 30480
546 44864 33920 31104 25008 30480
547 46464 34624 31104 25008 30480
548 33984 34752 31104 25008 30480
549 24384 35200 31104 25008 30480
550 24640 34304 31200 24928 30496
551 28544 34048 31200 24928 30496
552 29632 34176 31200 24928 30496
553 29888 33792 31200 24928 30496
554 31424 33984 31200 24928 30496
555 31936 34496 31200 24928 30496
556 32384 34112 31200 24928 30496
557 32128 34432 31200 24928 30496
558 32192 34112 31200 24928 30496
559 32448 34304 31200 24928 30496
560 32320 33920 31200 25008 30448
561 32512 33728 31200 25008 30448
562 32832 34368 31200 25008 30448
563 32640 33984 31200 25008 30448
564 32576 34176 31200 25008 30448
565 32576 33984 31200 25008 30448
566 33088 34496 31200 25008 30448
567 33216 34368 31200 25008 30448
568 32576 33984 31200 25008 30448
569 32768 33920 31200 25008 30448
570 32704 34112 31184 25040 30448
571 33216 34112 31184 25040 30448
572 33408 34240 31184 25040 30448
573 33984 34304 31184 25040 30448
574 34368 34304 31184 25040 30448
575 34112 33856 31184 25040 30448
576 34688 34432 31184 25040 30448
577 34304 34176 31184 25040 30448
578 34176 34240 31184 25040 30448
579 34496 33984 31184 25040 30448
580 34432 33984 31184 25040 30448
581 34368 33600 31184 25040 30448
582 34432 34560 31184 25040 30448
583 34048 34112 31184 25040 30448
584 33600 33984 31184 25040 30448
585 33344 33920 31184 25040 30448
586 32640 33728 31184 25040 30448
587 32256 33728 31184 25040 30448
588 32320 34112 31184 25040 30448
589 31872 33920 31184 25040 30448
590 31936 33984 31200 25024 30336
591 32384 33984 31200 25024 30336
592 31744 33344 31200 25024 30336
593 32192 34176 31200 25024 30336
594 32064 33920 31200 25024 30336
595 32576 33984 31200 25024 30336
596 32384 33856 31200 25024 30336
597 32256 33792 31200 25024 30336
598 32640 34112 31200 25024 30336
599 32448 33920 31200 25024 30336
600 32320 33792 31152 25008 30384
601 32384 33728 31152 25008 30384
602 32128 33408 31152 25008 30384
603 32448 33856 31152 25008 30384
604 32320 33984 31152 25008 30384
605 32640 34048 31152 25008 30384
606 32000 33792 31152 25008 30384
607 31936 33728 31152 25008 30384
608 32128 33728 31152 25008 30384
609 32256 33856 31152 25008 30384
610 31936 33856 31168 25040 30400
611 31552 33792 31168 25040 30400
612 31488 33920 31168 25040 30400
613 31616 34048 31168 25040 30400
614 32256 34176 31168 25040 30400
615 31680 33920 31168 25040 30400
616 32064 33728 31168 25040 30400
617 32512 34112 31168 25040 30400
618 32704 33920 31168 25040 30400
619 32704 33664 31168 25040 30400
620 32832 33728 31168 24928 30464
621 32064 33984 31168 24928 30464
622 32320 34048 31168 24928 30464
623 32512 33600 31168 24928 30464
624 31936 33728 31168 24928 30464
625 31488 33408 31168 24928 30464
626 31040 33664 31168 24928 30464
627 31360 34304 31168 24928 30464
628 31104 34112 31168 24928 30464
629 30976 33984 31168 24928 30464
630 31040 34432 31168 24976 30432
631 31168 34304 31168 24976 30432
632 31744 34112 31168 24976 30432
633 38208 34176 31168 24976 30432
634 45568 34240 31168 24976 30432
635 47168 34368 31168 24976 30432
636 33024 34368 31168 24976 30432
637 22336 34176 31168 24976 30432
638 24320 33856 31168 24976 30432
639 27008 34112 31168 24976 30432
640 28864 34112 31168 24976 30432
641 30336 33984 31168 24976 30432
642 31616 33856 31168 24976 30432
643 32192 33920 31168 24976 30432
644 32448 34048 31168 24976 30432
645 32256 33984 31168 24976 30432
646 32576 33856 31168 24976 30432
647 32576 33728 31168 24976 30432
648 32512 33600 31168 24976 30432
649 32960 33664 31168 24976 30432
650 32896 33920 31168 24992 30448
651 32704 33792 31168 24992 30448
652 33088 33792 31168 24992 30448
653 32896 34176 31168 24992 30448
654 33088 34176 31168 24992 30448
655 33472 34176 31168 24992 30448
656 33536 34048 31168 24992 30448
657 33920 33856 31168 24992 30448
658 33728 33792 31168 24992 30448
659 33664 34176 31168 24992 30448
660 34240 33920 31104 25024 30400
661 34304 34112 31104 25024 30400
662 35328 33984 31104 25024 30400
663 34752 33984 31104 25024 30400
664 35008 34112 31104 25024 30400
665 35136 34112 31104 25024 30400
666 35072 33984 31104 25024 30400
667 35264 34368 31104 25024 30400
668 35456 34176 31104 25024 30400
669 34816 33920 31104 25024 30400
670 34496 33856 31120 25024 30400
671 34304 33984 31120 25024 30400
672 33728 34176 31120 25024 30400
673 33856 34048 31120 25024 30400
674 32896 34176 31120 25024 30400
675 32704 33856 31120 25024 30400
676 32192 33344 31120 25024 30400
677 32128 33792 31120 25024 30400
678 31872 33664 31120 25024 30400
679 32384 33856 31120 25024 30400
680 32064 33472 31120 25008 30400
681 32320 33472 31120 25008 30400
682 32384 33664 31120 25008 30400
683 32768 33792 31120 25008 30400
684 32832 33984 31120 25008 30400
685 32640 33984 31120 25008 30400
686 32512 33856 31120 25008 30400
687 32576 33984 31120 25008 30400
688 32960 35136 31120 25008 30400
689 32000 35072 31120 25008 30400
690 32064 36672 31120 25008 30400
691 32064 37632 31120 25008 30400
692 32320 38336 31120 25008 30400
693 32320 39488 31120 25008 30400
694 32064 39808 31120 25008 30400
695 32192 40576 31120 25008 30400
696 31808 40896 31120 25008 30400
697 31872 40768 31120 25008 30400
698 31680 40192 31120 25008 30400
699 31744 40192 31120 25008 30400
700 31936 39488 31168 25056 30368
701 32320 38720 31168 25056 30368
702 31872 37632 31168 25056 30368
703 31744 36928 31168 25056 30368
704 32064 35904 31168 25056 30368
705 32896 35456 31168 25056 30368
706 33024 35072 31168 25056 30368
707 32896 34560 31168 25056 30368
708 32960 34112 31168 25056 30368
709 32576 33600 31168 25056 30368
710 32832 33664 31152 25072 30384
711 32768 33600 31152 25072 30384
712 32256 33536 31152 25072 30384
713 31872 33216 31152 25072 30384
714 31424 33088 31152 25072 30384
715 31424 32896 31152 25072 30384
716 31104 32640 31152 25072 30384
717 31232 32384 31152 25072 30384
718 31296 32064 31152 25072 30384
719 31488 32064 31152 25072 30384
720 31808 31936 31216 25040 30384
721 37568 31808 31216 25040 30384
722 45120 31488 31216 25040 30384
723 48320 31616 31216 25040 30384
724 34112 32064 31216 25040 30384
725 21888 31808 31216 25040 30384
726 20992 31936 31216 25040 30384
727 25216 32064 31216 25040 30384
728 27584 31936 31216 25040 30384
729 28992 31808 31216 25040 30384
730 31552 31872 31168 25056 30464
731 32384 31872 31168 25056 30464
732 32320 31808 31168 25056 30464
733 32512 31488 31168 25056 30464
734 32512 31744 31168 25056 30464
735 32832 32000 31168 25056 30464
736 32960 31808 31168 25056 30464
737 32960 31680 31168 25056 30464
738 33344 32064 31168 25056 30464
739 33216 31936 31168 25056 30464
740 33280 31744 31168 25056 30464
741 33536 31616 31168 25056 30464
742 33472 31360 31168 25056 30464
743 33408 31104 31168 25056 30464
744 33600 31424 31168 25056 30464
745 33728 31744 31168 25056 30464
746 33856 31744 31168 25056 30464
747 33920 31360 31168 25056 30464
748 34496 31872 31168 25056 30464
749 34752 31616 31168 25056 30464
750 35008 31744 31104 25024 30416
751 34944 31808 31104 25024 30416
752 35200 31936 31104 25024 30416
753 34880 31552 31104 25024 30416
754 35264 31744 31104 25024 30416
755 35392 31744 31104 25024 30416
756 34944 31808 31104 25024 30416
757 34688 31808 31104 25024 30416
758 34496 31680 31104 25024 30416
759 33984 31872 31104 25024 30416
760 33856 31808 31136 25024 30400
761 33152 31616 31136 25024 30400
762 33024 32000 31136 25024 30400
763 32512 32064 31136 25024 30400
764 31872 32192 31136 25024 30400
765 31744 31872 31136 25024 30400
766 32064 32256 31136 25024 30400
767 31808 32128 31136 25024 30400
768 31680 32256 31136 25024 30400
769 31872 32576 31136 25024 30400
770 31488 32896 31136 25024 30400
771 32064 33088 31136 25024 30400
772 32064 32896 31136 25024 30400
773 32192 32768 31136 25024 30400
774 31872 32640 31136 25024 30400
775 31808 32512 31136 25024 30400
776 32128 32768 31136 25024 30400
777 32128 32768 31136 25024 30400
778 32256 32384 31136 25024 30400
779 32064 32896 31136 25024 30400
780 31936 33088 31152 24992 30352
781 32064 33984 31152 24992 30352
782 31808 33984 31152 24992 30352
783 31296 34112 31152 24992 30352
784 31808 33920 31152 24992 30352
785 31360 33984 31152 24992 30352
786 31232 33728 31152 24992 30352
787 31552 34112 31152 24992 30352
788 31424 33920 31152 24992 30352
789 31488 34368 31152 24992 30352
790 31552 34176 31184 25008 30400
791 31744 34304 31184 25008 30400
792 31744 34240 31184 25008 30400
793 31232 33920 31184 25008 30400
794 31680 33920 31184 25008 30400
795 32640 33856 31184 25008 30400
796 32640 34112 31184 25008 30400
797 32704 34112 31184 25008 30400
798 32512 34240 31184 25008 30400
799 32320 34112 31184 25008 30400
800 32320 34112 31184 25008 30400
801 32256 34112 31184 25008 30400
802 31488 33728 31184 25008 30400
803 31040 33792 31184 25008 30400
804 30976 33984 31184 25008 30400
805 30592 33856 31184 25008 30400
806 30400 33664 31184 25008 30400
807 30912 33664 31184 25008 30400
808 30656 33088 31184 25008 30400
809 30912 34560 31184 25008 30400
810 32768 34240 31072 24992 30464
811 40704 35968 31072 24992 30464
812 47424 35712 31072 24992 30464
813 42944 36992 31072 24992 30464
814 26624 36928 31072 24992 30464
815 19584 36480 31072 24992 30464
816 22336 35776 31072 24992 30464
817 25024 35328 31072 24992 30464
818 28032 35264 31072 24992 30464
819 30592 35200 31072 24992 30464
820 32384 35072 31072 24976 30416
821 32128 35264 31072 24976 30416
822 32448 34752 31072 24976 30416
823 32512 34752 31072 24976 30416
824 32960 34752 31072 24976 30416
825 33280 34688 31072 24976 30416
826 33152 34240 31072 24976 30416
827 33472 34304 31072 24976 30416
828 33024 34240 31072 24976 30416
829 33536 34432 31072 24976 30416
830 33600 34240 31136 24960 30384
831 33472 34368 31136 24960 30384
832 33408 34304 31136 24960 30384
833 33856 34304 31136 24960 30384
834 33920 34432 31136 24960 30384
835 34176 34432 31136 24960 30384
836 34432 34432 31136 24960 30384
837 34496 33856 31136 24960 30384
838 34560 34304 31136 24960 30384
839 35008 34304 31136 24960 30384
840 35008 33984 31136 24960 30384
841 35712 34048 31136 24960 30384
842 35712 33856 31136 24960 30384
843 35712 34176 31136 24960 30384
844 35456 33984 31136 24960 30384
845 35392 34112 31136 24960 30384
846 35520 34048 31136 24960 30384
847 34880 34176 31136 24960 30384
848 34816 34304 31136 24960 30384
849 34112 34048 31136 24960 30384
850 33600 33856 31136 24992 30368
851 33600 34240 31136 24992 30368
852 32960 34368 31136 24992 30368
853 32832 34624 31136 24992 30368
854 32192 34304 31136 24992 30368
855 32448 33984 31136 24992 30368
856 32128 33984 31136 24992 30368
857 32192 33920 31136 24992 30368
858 32320 34304 31136 24992 30368
859 32384 34304 31136 24992 30368
860 32192 34496 31168 25040 30368
861 33024 35072 31168 25040 30368
862 32576 35520 31168 25040 30368
863 32512 36160 31168 25040 30368
864 32128 37632 31168 25040 30368
865 32576 38976 31168 25040 30368
866 32192 39552 31168 25040 30368
867 32320 41152 31168 25040 30368
868 32000 41600 31168 25040 30368
869 32320 42432 31168 25040 30368
870 32384 42496 31152 24992 30448
871 32128 42432 31152 24992 30448
872 32000 42176 31152 24992 30448
873 31808 41728 31152 24992 30448
874 32192 40832 31152 24992 30448
875 31872 39936 31152 24992 30448
876 31936 39168 31152 24992 30448
877 31936 38016 31152 24992 30448
878 31808 38016 31152 24992 30448
879 32000 37376 31152 24992 30448
880 32128 36224 31232 24896 30400
881 31936 35904 31232 24896 30400
882 32128 35200 31232 24896 30400
883 32320 34944 31232 24896 30400
884 32960 34176 31232 24896 30400
885 33024 34112 31232 24896 30400
886 32896 33792 31232 24896 30400
887 32960 33536 31232 24896 30400
888 32896 33536 31232 24896 30400
889 32832 32768 31232 24896 30400
890 32704 32896 31200 24976 30400
891 32320 32384 31200 24976 30400
892 31744 32000 31200 24976 30400
893 31680 32384 31200 24976 30400
894 31616 31616 31200 24976 30400
895 31232 32832 31200 24976 30400
896 31552 32192 31200 24976 30400
897 31680 31808 31200 24976 30400
898 31424 32192 31200 24976 30400
899 33344 31936 31200 24976 30400
900 40640 31616 31200 24976 30400
901 47616 31360 31200 24976 30400
902 43200 32512 31200 24976 30400
903 29568 32448 31200 24976 30400
904 23232 32000 31200 24976 30400
905 26560 31424 31200 24976 30400
906 28480 31680 31200 24976 30400
907 29888 31872 31200 24976 30400
908 31232 32192 31200 24976 30400
909 32000 31872 31200 24976 30400
910 32000 31488 31184 24960 30400
911 32320 32064 31184 24960 30400
912 32320 32192 31184 24960 30400
913 32768 32064 31184 24960 30400
914 32704 32064 31184 24960 30400
915 32512 32128 31184 24960 30400
916 32832 32128 31184 24960 30400
917 32832 31680 31184 24960 30400
918 32832 32064 31184 24960 30400
919 32512 32576 31184 24960 30400
920 32896 32704 31264 25024 30400
921 32640 32000 31264 25024 30400
922 33024 32384 31264 25024 30400
923 32960 31936 31264 25024 30400
924 33344 32576 31264 25024 30400
925 33472 32192 31264 25024 30400
926 33600 31808 31264 25024 30400
927 33920 31872 31264 25024 30400
928 34112 32128 31264 25024 30400
929 34304 32704 31264 25024 30400
930 34304 32320 31232 24992 30368
931 34432 32768 31232 24992 30368
932 34560 32960 31232 24992 30368
933 34496 32512 31232 24992 30368
934 34368 32320 31232 24992 30368
935 34048 32256 31232 24992 30368
936 34304 32512 31232 24992 30368
937 34304 32960 31232 24992 30368
938 34240 32576 31232 24992 30368
939 33600 32128 31232 24992 30368
940 32512 32704 31232 24992 30368
941 32448 32448 31232 24992 30368
942 32256 32576 31232 24992 30368
943 32000 32832 31232 24992 30368
944 31680 32768 31232 24992 30368
945 32064 32704 31232 24992 30368
946 31744 32000 31232 24992 30368
947 31744 32768 31232 24992 30368
948 31744 33408 31232 24992 30368
949 31808 33216 31232 24992 30368
950 32000 32960 31200 24976 30352
951 32384 32768 31200 24976 30352
952 31552 32576 31200 24976 30352
953 32320 33088 31200 24976 30352
954 31936 32704 31200 24976 30352
955 31936 32704 31200 24976 30352
956 31872 32384 31200 24976 30352
957 32000 32256 31200 24976 30352
958 31872 32640 31200 24976 30352
959 31488 32320 31200 24976 30352
960 31616 32256 31104 25056 30432
961 31616 32128 31104 25056 30432
962 31808 32384 31104 25056 30432
963 32128 32960 31104 25056 30432
964 31680 32576 31104 25056 30432
965 31104 32448 31104 25056 30432
966 31744 32320 31104 25056 30432
967 31296 32512 31104 25056 30432
968 32128 32768 31104 25056 30432
969 32832 32768 31104 25056 30432
970 32448 32512 31136 25024 30432
971 32320 32576 31136 25024 30432
972 31872 32576 31136 25024 30432
973 32192 32576 31136 25024 30432
974 32192 32832 31136 25024 30432
975 32320 32640 31136 25024 30432
976 31424 32320 31136 25024 30432
977 31232 33024 31136 25024 30432
978 30784 32832 31136 25024 30432
979 31168 32640 31136 25024 30432
980 31104 32960 31136 25024 30432
981 31104 32768 31136 25024 30432
982 30720 32896 31136 25024 30432
983 31040 33152 31136 25024 30432
984 32704 32640 31136 25024 30432
985 40000 32512 31136 25024 30432
986 46720 32640 31136 25024 30432
987 44160 33536 31136 25024 30432
988 31616 33792 31136 25024 30432
989 24768 33472 31136 25024 30432
990 26816 32896 31168 25088 30368
991 28480 33280 31168 25088 30368
992 29824 33408 31168 25088 30368
993 30592 33152 31168 25088 30368
994 31680 33024 31168 25088 30368
995 31680 33280 31168 25088 30368
996 31808 32960 31168 25088 30368
997 31936 33216 31168 25088 30368
998 32064 33536 31168 25088 30368
999 32448 32960 31168 25088 30368
1000 32256 33728 31168 25088 30368
1001 32064 33408 31168 25088 30368
1002 32064 33536 31168 25088 30368
1003 32448 33088 31168 25088 30368
1004 32256 33472 31168 25088 30368
1005 32640 33792 31168 25088 30368
1006 32704 33472 31168 25088 30368
1007 32640 33408 31168 25088 30368
1008 32896 33408 31168 25088 30368
1009 32576 33216 31168 25088 30368
1010 33024 33472 31152 25056 30352
1011 33280 33664 31152 25056 30352
1012 33472 33408 31152 25056 30352
1013 33984 33728 31152 25056 30352
1014 33984 33664 31152 25056 30352
1015 34112 33920 31152 25056 30352
1016 34176 33856 31152 25056 30352
1017 34112 33664 31152 25056 30352
1018 34496 33856 31152 25056 30352
1019 34432 33728 31152 25056 30352
1020 33920 33792 31152 25024 30352
1021 34048 33536 31152 25024 30352
1022 33664 33536 31152 25024 30352
1023 33728 33664 31152 25024 30352
1024 32768 33536 31152 25024 30352
1025 32704 33984 31152 25024 30352
1026 32256 33472 31152 25024 30352
1027 31936 33472 31152 25024 30352
1028 31424 33664 31152 25024 30352
1029 31680 32960 31152 25024 30352
1030 31040 32832 31200 25120 30464
1031 31552 32960 31200 25120 30464
1032 31808 32320 31200 25120 30464
1033 31104 31872 31200 25120 30464
1034 31488 31552 31200 25120 30464
1035 31936 31360 31200 25120 30464
1036 31616 30464 31200 25120 30464
1037 31552 30592 31200 25120 30464
1038 31552 30336 31200 25120 30464
1039 31680 30464 31200 25120 30464
1040 31424 30784 31200 25072 30464
1041 32128 30912 31200 25072 30464
1042 32000 30592 31200 25072 30464
1043 31552 30528 31200 25072 30464
1044 31296 30720 31200 25072 30464
1045 31488 30784 31200 25072 30464
1046 31360 30720 31200 25072 30464
1047 31296 30656 31200 25072 30464
1048 31360 31104 31200 25072 30464
1049 31424 30528 31200 25072 30464
1050 31104 30848 31200 25072 30464
1051 31424 30592 31200 25072 30464
1052 31424 30336 31200 25072 30464
1053 31168 30912 31200 25072 30464
1054 31744 31040 31200 25072 30464
1055 32192 30784 31200 25072 30464
1056 32512 30976 31200 25072 30464
1057 32192 31104 31200 25072 30464
1058 31232 31424 31200 25072 30464
1059 32320 31616 31200 25072 30464
1060 31744 31680 31152 25040 30480
1061 31552 31616 31152 25040 30480
1062 30848 31104 31152 25040 30480
1063 31040 31680 31152 25040 30480
1064 30592 31744 31152 25040 30480
1065 30784 31616 31152 25040 30480
1066 30656 31616 31152 25040 30480
1067 30592 31808 31152 25040 30480
1068 30656 32128 31152 25040 30480
1069 30528 31872 31152 25040 30480
1070 32384 31872 31136 24992 30432
1071 39936 31808 31136 24992 30432
1072 46528 31488 31136 24992 30432
1073 43264 32320 31136 24992 30432
1074 30272 32576 31136 24992 30432
1075 23040 32128 31136 24992 30432
1076 25728 31616 31136 24992 30432
1077 27328 31040 31136 24992 30432
1078 28736 31040 31136 24992 30432
1079 30080 30912 31136 24992 30432
1080 30784 30464 31168 25024 30448
1081 31680 31360 31168 25024 30448
1082 31232 31232 31168 25024 30448
1083 31168 30784 31168 25024 30448
1084 31552 30784 31168 25024 30448
1085 31744 30528 31168 25024 30448
1086 31552 31040 31168 25024 30448
1087 31808 30656 31168 25024 30448
1088 31936 30720 31168 25024 30448
1089 31552 31104 31168 25024 30448
1090 32192 30720 31184 25008 30448
1091 31808 30592 31184 25008 30448
1092 32512 31168 31184 25008 30448
1093 32128 31232 31184 25008 30448
1094 32576 31168 31184 25008 30448
1095 32896 31360 31184 25008 30448
1096 32768 31360 31184 25008 30448
1097 32960 31552 31184 25008 30448
1098 33280 31232 31184 25008 30448
1099 33984 31680 31184 25008 30448
1100 33792 31424 31184 25008 30448
1101 34048 31616 31184 25008 30448
1102 34496 31680 31184 25008 30448
1103 33920 31680 31184 25008 30448
1104 33984 31552 31184 25008 30448
1105 34176 31552 31184 25008 30448
1106 33664 31744 31184 25008 30448
1107 34368 32512 31184 25008 30448
1108 33792 32000 31184 25008 30448
1109 33216 32000 31184 25008 30448
1110 32768 32192 31200 24992 30368
1111 32512 32000 31200 24992 30368
1112 31872 32128 31200 24992 30368
1113 31552 32128 31200 24992 30368
1114 31360 31232 31200 24992 30368
1115 31488 32640 31200 24992 30368
1116 31360 32768 31200 24992 30368
1117 31488 34048 31200 24992 30368
1118 30976 35200 31200 24992 30368
1119 31808 36672 31200 24992 30368
1120 31808 36800 31184 24976 30416
1121 31616 37504 31184 24976 30416
1122 31680 38080 31184 24976 30416
1123 31296 38400 31184 24976 30416
1124 31872 37824 31184 24976 30416
1125 32128 37696 31184 24976 30416
1126 31744 37248 31184 24976 30416
1127 31744 36864 31184 24976 30416
1128 31424 36800 31184 24976 30416
1129 31744 37312 31184 24976 30416
1130 31808 36480 31200 25008 30448
1131 31680 36416 31200 25008 30448
1132 31872 35968 31200 25008 30448
1133 31680 36160 31200 25008 30448
1134 31616 36416 31200 25008 30448
1135 31616 36288 31200 25008 30448
1136 31552 36096 31200 25008 30448
1137 31360 35840 31200 25008 30448
1138 31936 36416 31200 25008 30448
1139 31296 35968 31200 25008 30448
1140 31296 36096 31136 25088 30464
1141 31616 35968 31136 25088 30464
1142 32320 35584 31136 25088 30464
1143 32640 36096 31136 25088 30464
1144 32192 36032 31136 25088 30464
1145 32384 35072 31136 25088 30464
1146 31744 35136 31136 25088 30464
1147 31872 34368 31136 25088 30464
1148 32128 35328 31136 25088 30464
1149 31616 36096 31136 25088 30464
1150 31360 36224 31136 25056 30448
1151 31040 35264 31136 25056 30448
1152 32064 35584 31136 25056 30448
1153 30784 36352 31136 25056 30448
1154 30656 35904 31136 25056 30448
1155 30976 36352 31136 25056 30448
1156 31168 36032 31136 25056 30448
1157 31936 35904 31136 25056 30448
1158 37504 35584 31136 25056 30448
1159 44992 35712 31136 25056 30448
1160 47360 35584 31136 25056 30448
1161 33728 36224 31136 25056 30448
1162 23168 35328 31136 25056 30448
1163 23424 35456 31136 25056 30448
1164 26752 35648 31136 25056 30448
1165 28608 35840 31136 25056 30448
1166 29568 34688 31136 25056 30448
1167 31552 35136 31136 25056 30448
1168 32064 35520 31136 25056 30448
1169 31872 35456 31136 25056 30448
1170 32320 36032 31136 25024 30416
1171 32128 35008 31136 25024 30416
1172 32704 35392 31136 25024 30416
1173 32960 34560 31136 25024 30416
1174 32576 35392 31136 25024 30416
1175 32832 35136 31136 25024 30416
1176 32704 35392 31136 25024 30416
1177 32384 34432 31136 25024 30416
1178 32768 35456 31136 25024 30416
1179 32960 35584 31136 25024 30416
1180 33088 35584 31008 24960 30400
1181 33216 35008 31008 24960 30400
1182 33600 35136 31008 24960 30400
1183 33664 34880 31008 24960 30400
1184 34176 35136 31008 24960 30400
1185 34048 35328 31008 24960 30400
1186 34496 35392 31008 24960 30400
1187 34240 35200 31008 24960 30400
1188 34688 34112 31008 24960 30400
1189 34432 35264 31008 24960 30400
1190 35008 35456 31088 24992 30416
1191 35328 35008 31088 24992 30416
1192 34816 34368 31088 24992 30416
1193 34880 35328 31088 24992 30416
1194 34752 35520 31088 24992 30416
1195 34560 34816 31088 24992 30416
1196 34432 34304 31088 24992 30416
1197 33600 35200 31088 24992 30416
1198 33472 34560 31088 24992 30416
1199 33024 34688 31088 24992 30416
1200 32128 34496 31088 24992 30416
1201 32512 34240 31088 24992 30416
1202 31808 34176 31088 24992 30416
1203 31808 34112 31088 24992 30416
1204 31616 34624 31088 24992 30416
1205 31808 34496 31088 24992 30416
1206 32192 34432 31088 24992 30416
1207 32128 34304 31088 24992 30416
1208 32000 35456 31088 24992 30416
1209 32000 34624 31088 24992 30416
1210 32128 34880 31152 25008 30384
1211 31872 34816 31152 25008 30384
1212 32128 34432 31152 25008 30384
1213 32064 34624 31152 25008 30384
1214 31936 35072 31152 25008 30384
1215 32320 34752 31152 25008 30384
1216 31808 34944 31152 25008 30384
1217 32192 34432 31152 25008 30384
1218 31808 34112 31152 25008 30384
1219 31808 35008 31152 25008 30384
1220 31872 34752 31136 25024 30496
1221 31616 34752 31136 25024 30496
1222 31552 34624 31136 25024 30496
1223 31744 35008 31136 25024 30496
1224 31680 34880 31136 25024 30496
1225 31232 35136 31136 25024 30496
1226 31104 34432 31136 25024 30496
1227 31680 34368 31136 25024 30496
1228 30912 34240 31136 25024 30496
1229 31552 34304 31136 25024 30496
1230 31616 34048 31136 24992 30432
1231 31232 34432 31136 24992 30432
1232 30912 33856 31136 24992 30432
1233 31488 33728 31136 24992 30432
1234 31296 34304 31136 24992 30432
1235 31616 34368 31136 24992 30432
1236 31680 34432 31136 24992 30432
1237 32768 34368 31136 24992 30432
1238 32704 33856 31136 24992 30432
1239 32640 34240 31136 24992 30432
1240 32384 34688 31104 25008 30416
1241 32000 33920 31104 25008 30416
1242 32704 33984 31104 25008 30416
1243 32192 33408 31104 25008 30416
1244 31616 34688 31104 25008 30416
1245 31552 34304 31104 25008 30416
1246 30784 34432 31104 25008 30416
1247 30848 34432 31104 25008 30416
1248 30976 34240 31104 25008 30416
1249 30848 34368 31104 25008 30416
1250 30784 33984 31200 25056 30400
1251 30592 34432 31200 25056 30400
1252 32000 33728 31200 25056 30400
1253 40128 34112 31200 25056 30400
1254 47488 34176 31200 25056 30400
1255 43904 34496 31200 25056 30400
1256 27200 34752 31200 25056 30400
1257 19648 34368 31200 25056 30400
1258 22144 34240 31200 25056 30400
1259 24768 34944 31200 25056 30400
1260 27584 34368 31200 25056 30400
1261 29888 34304 31200 25056 30400
1262 31872 33600 31200 25056 30400
1263 31936 34816 31200 25056 30400
1264 32576 34112 31200 25056 30400
1265 32384 34176 31200 25056 30400
1266 32704 34624 31200 25056 30400
1267 32832 34560 31200 25056 30400
1268 32768 34560 31200 25056 30400
1269 33152 34048 31200 25056 30400
1270 33216 34240 31232 24976 30400
1271 33600 34560 31232 24976 30400
1272 33088 34752 31232 24976 30400
1273 33280 34176 31232 24976 30400
1274 33792 34816 31232 24976 30400
1275 33344 34496 31232 24976 30400
1276 33664 34304 31232 24976 30400
1277 34176 33728 31232 24976 30400
1278 33984 34496 31232 24976 30400
1279 34304 34368 31232 24976 30400
1280 35264 35136 31168 24976 30448
1281 35008 34048 31168 24976 30448
1282 35136 35072 31168 24976 30448
1283 35264 34176 31168 24976 30448
1284 35904 35584 31168 24976 30448
1285 35712 34688 31168 24976 30448
1286 35456 34176 31168 24976 30448
1287 35328 33920 31168 24976 30448
1288 35584 34624 31168 24976 30448
1289 35328 35072 31168 24976 30448
1290 34496 34240 31136 24992 30432
1291 34368 33792 31136 24992 30432
1292 33472 33984 31136 24992 30432
1293 32832 33728 31136 24992 30432
1294 32768 33472 31136 24992 30432
1295 32512 33344 31136 24992 30432
1296 32576 32896 31136 24992 30432
1297 31872 33088 31136 24992 30432
1298 31872 33856 31136 24992 30432
1299 32192 32960 31136 24992 30432
1300 31936 33600 31136 25040 30432
1301 31936 32960 31136 25040 30432
1302 32064 33024 31136 25040 30432
1303 32192 32832 31136 25040 30432
1304 32064 33024 31136 25040 30432
1305 32128 33408 31136 25040 30432
1306 32512 32960 31136 25040 30432
1307 32512 33024 31136 25040 30432
1308 32128 33216 31136 25040 30432
1309 31936 33152 31136 25040 30432
1310 32192 33088 31152 25008 30384
1311 32448 34240 31152 25008 30384
1312 32384 33344 31152 25008 30384
1313 32320 33536 31152 25008 30384
1314 32064 33600 31152 25008 30384
1315 31936 33728 31152 25008 30384
1316 32128 33088 31152 25008 30384
1317 32064 33280 31152 25008 30384
1318 32064 33216 31152 25008 30384
1319 32256 33088 31152 25008 30384
1320 32064 32064 31152 25008 30384
1321 32128 31488 31152 25008 30384
1322 31936 32128 31152 25008 30384
1323 32064 31936 31152 25008 30384
1324 32128 31872 31152 25008 30384
1325 32064 31616 31152 25008 30384
1326 32256 30976 31152 25008 30384
1327 32256 31744 31152 25008 30384
1328 32128 31680 31152 25008 30384
1329 31936 30912 31152 25008 30384
1330 32064 31488 31200 24928 30400
1331 33280 31488 31200 24928 30400
1332 32960 31488 31200 24928 30400
1333 32832 31872 31200 24928 30400
1334 33088 31872 31200 24928 30400
1335 32896 31616 31200 24928 30400
1336 33088 31744 31200 24928 30400
1337 33088 31680 31200 24928 30400
1338 33152 32256 31200 24928 30400
1339 32448 31936 31200 24928 30400
1340 31936 31168 31216 24944 30400
1341 31808 31680 31216 24944 30400
1342 31424 32128 31216 24944 30400
1343 31936 32128 31216 24944 30400
1344 31168 32256 31216 24944 30400
1345 31744 32640 31216 24944 30400
1346 31680 32384 31216 24944 30400
1347 35584 32960 31216 24944 30400
1348 42688 33024 31216 24944 30400
1349 47872 32704 31216 24944 30400
1350 39104 33088 31168 24976 30432
1351 26624 33536 31168 24976 30432
1352 23232 33152 31168 24976 30432
1353 28096 33024 31168 24976 30432
1354 29440 33024 31168 24976 30432
1355 30208 32640 31168 24976 30432
1356 31424 32832 31168 24976 30432
1357 32576 33024 31168 24976 30432
1358 32512 33280 31168 24976 30432
1359 32256 33280 31168 24976 30432
1360 32832 33280 31168 24976 30432
1361 32896 33408 31168 24976 30432
1362 32896 32960 31168 24976 30432
1363 32448 33472 31168 24976 30432
1364 32640 33472 31168 24976 30432
1365 33024 32640 31168 24976 30432
1366 32448 33600 31168 24976 30432
1367 32832 33600 31168 24976 30432
1368 33024 32896 31168 24976 30432
1369 32960 32960 31168 24976 30432
1370 33344 33280 31168 25056 30336
1371 33344 33792 31168 25056 30336
1372 33408 33280 31168 25056 30336
1373 33344 33152 31168 25056 30336
1374 33856 33152 31168 25056 30336
1375 34432 33024 31168 25056 30336
1376 34432 33408 31168 25056 30336
1377 34688 33408 31168 25056 30336
1378 34816 33728 31168 25056 30336
1379 35136 33728 31168 25056 30336
1380 34944 33344 31168 24992 30320
1381 35072 33792 31168 24992 30320
1382 35136 33792 31168 24992 30320
1383 34752 33472 31168 24992 30320
1384 34816 33792 31168 24992 30320
1385 34304 33984 31168 24992 30320
1386 34048 33984 31168 24992 30320
1387 33280 33792 31168 24992 30320
1388 33024 33728 31168 24992 30320
1389 32640 33792 31168 24992 30320
1390 32128 33408 31184 25008 30336
1391 32064 33664 31184 25008 30336
1392 31872 33792 31184 25008 30336
1393 32320 33408 31184 25008 30336
1394 31808 33600 31184 25008 30336
1395 31488 33856 31184 25008 30336
1396 32384 33920 31184 25008 30336
1397 32192 33728 31184 25008 30336
1398 31808 33792 31184 25008 30336
1399 32000 33728 31184 25008 30336
1400 32320 33984 31168 24992 30432
1401 32320 33984 31168 24992 30432
1402 31872 33984 31168 24992 30432
1403 32192 34112 31168 24992 30432
1404 32000 34112 31168 24992 30432
1405 32128 34048 31168 24992 30432
1406 31936 34176 31168 24992 30432
1407 32192 34368 31168 24992 30432
1408 31808 33856 31168 24992 30432
1409 32320 34176 31168 24992 30432
1410 32128 34176 31184 24992 30400
1411 31936 33920 31184 24992 30400
1412 31808 34048 31184 24992 30400
1413 31808 34176 31184 24992 30400
1414 31616 33792 31184 24992 30400
1415 31744 34240 31184 24992 30400
1416 31808 34432 31184 24992 30400
1417 31296 34432 31184 24992 30400
1418 31552 34624 31184 24992 30400
1419 31616 34560 31184 24992 30400
1420 31680 34496 31184 24992 30400
1421 32832 34880 31184 24992 30400
1422 32640 34624 31184 24992 30400
1423 32128 34624 31184 24992 30400
1424 32128 34944 31184 24992 30400
1425 32384 35264 31184 24992 30400
1426 32000 35200 31184 24992 30400
1427 32384 36160 31184 24992 30400
1428 31296 35776 31184 24992 30400
1429 31424 36864 31184 24992 30400
1430 30848 37440 31184 25008 30416
1431 30848 38528 31184 25008 30416
1432 30144 38784 31184 25008 30416
1433 30528 39744 31184 25008 30416
1434 30272 40704 31184 25008 30416
1435 30336 40576 31184 25008 30416
1436 31296 40960 31184 25008 30416
1437 37568 40128 31184 25008 30416
1438 44608 40192 31184 25008 30416
1439 45760 40320 31184 25008 30416
1440 32384 40064 31104 25088 30496
1441 22848 38976 31104 25088 30496
1442 24128 37376 31104 25088 30496
1443 27584 36800 31104 25088 30496
1444 28864 35712 31104 25088 30496
1445 29632 35136 31104 25088 30496
1446 31104 34176 31104 25088 30496
1447 31296 33920 31104 25088 30496
1448 31808 33152 31104 25088 30496
1449 31808 33152 31104 25088 30496
1450 31744 32896 31216 25008 30416
1451 31744 32128 31216 25008 30416
1452 31104 31808 31216 25008 30416
1453 31808 31168 31216 25008 30416
1454 31872 31680 31216 25008 30416
1455 32000 31488 31216 25008 30416
1456 32000 31616 31216 25008 30416
1457 31488 31232 31216 25008 30416
1458 31360 31040 31216 25008 30416
1459 31744 31040 31216 25008 30416
1460 31744 31040 31216 25008 30416
1461 31744 31104 31216 25008 30416
1462 32384 31424 31216 25008 30416
1463 32448 32128 31216 25008 30416
1464 32320 32000 31216 25008 30416
1465 32576 31360 31216 25008 30416
1466 32704 30720 31216 25008 30416
1467 33280 31360 31216 25008 30416
1468 33408 30656 31216 25008 30416
1469 33024 30272 31216 25008 30416
1470 33408 30144 31136 24656 30480
1471 33984 30336 31136 24656 30480
1472 34112 30592 31136 24656 30480
1473 33600 30208 31136 24656 30480
1474 33984 30528 31136 24656 30480
1475 33088 29568 31136 24656 30480
1476 32320 28992 31136 24656 30480
1477 31168 28800 31136 24656 30480
1478 30144 28416 31136 24656 30480
1479 29760 27200 31136 24656 30480
1480 29952 28800 28928 26752 29760
1481 29696 28608 28928 26752 29760
1482 28992 27840 28928 26752 29760
1483 28416 27776 28928 26752 29760
1484 27904 27264 28928 26752 29760
1485 27328 26368 28928 26752 29760
1486 26432 25792 28928 26752 29760
1487 26048 25920 28928 26752 29760
1488 26944 26688 28928 26752 29760
1489 27648 27648 28928 26752 29760
1490 28544 28544 30288 25600 29664
1491 29632 29952 30288 25600 29664
1492 30656 30592 30288 25600 29664
1493 31616 31552 30288 25600 29664
1494 32512 32128 30288 25600 29664
1495 33024 32448 30288 25600 29664
1496 33280 31872 30288 25600 29664
1497 33280 32640 30288 25600 29664
1498 33472 32640 30288 25600 29664
1499 33152 33216 30288 25600 29664
1500 33536 33408 31696 25104 30144
1501 32896 33408 31696 25104 30144
1502 32512 34816 31696 25104 30144
1503 31488 34496 31696 25104 30144
1504 29632 33856 31696 25104 30144
1505 31168 33280 31696 25104 30144
1506 32000 33280 31696 25104 30144
1507 31424 33408 31696 25104 30144
1508 31680 33408 31696 25104 30144
1509 31168 33280 31696 25104 30144
1510 31104 33920 33248 27008 33152
1511 30912 33280 33248 27008 33152
1512 32320 35136 33248 27008 33152
1513 33088 35072 33248 27008 33152
1514 33408 35328 33248 27008 33152
1515 32704 34880 33248 27008 33152
1516 32896 34432 33248 27008 33152
1517 32512 34688 33248 27008 33152
1518 32000 34880 33248 27008 33152
1519 31296 34496 33248 27008 33152
1520 30592 34624 33248 27008 33152
1521 30272 34688 33248 27008 33152
1522 29312 33792 33248 27008 33152
1523 29696 34240 33248 27008 33152
1524 29248 34560 33248 27008 33152
1525 30144 34240 33248 27008 33152
1526 31296 34368 33248 27008 33152
1527 31872 32704 33248 27008 33152
1528 39360 32576 33248 27008 33152
1529 45888 32192 33248 27008 33152
1530 42816 32320 33072 25648 31632
1531 28608 33664 33072 25648 31632
1532 20864 34048 33072 25648 31632
1533 25088 33472 33072 25648 31632
1534 26688 33280 33072 25648 31632
1535 29056 35072 33072 25648 31632
1536 30592 32576 33072 25648 31632
1537 32896 35264 33072 25648 31632
1538 35328 35136 33072 25648 31632
1539 34880 35840 33072 25648 31632
1540 34624 36160 33360 33312 31008
1541 35968 37120 33360 33312 31008
1542 36800 38528 33360 33312 31008
1543 37248 38464 33360 33312 31008
1544 37312 38720 33360 33312 31008
1545 37120 38528 33360 33312 31008
1546 36672 37568 33360 33312 31008
1547 36096 36480 33360 33312 31008
1548 34944 35648 33360 33312 31008
1549 35200 34944 33360 33312 31008
1550 34624 34560 32544 25600 30272
1551 34368 33984 32544 25600 30272
1552 34560 34304 32544 25600 30272
1553 35264 33536 32544 25600 30272
1554 35776 33472 32544 25600 30272
1555 36224 33152 32544 25600 30272
1556 35392 34240 32544 25600 30272
1557 36544 35072 32544 25600 30272
1558 36160 34688 32544 25600 30272
1559 35904 35136 32544 25600 30272
1560 35520 35072 32336 25376 29792
1561 34560 34496 32336 25376 29792
1562 34304 33536 32336 25376 29792
1563 34240 33152 32336 25376 29792
1564 34304 34304 32336 25376 29792
1565 33600 33728 32336 25376 29792
1566 32640 33216 32336 25376 29792
1567 31872 33920 32336 25376 29792
1568 31040 33728 32336 25376 29792
1569 31936 34176 32336 25376 29792
1570 31616 33216 32336 25376 29792
1571 31808 32768 32336 25376 29792
1572 30848 32704 32336 25376 29792
1573 30272 32128 32336 25376 29792
1574 29632 31552 32336 25376 29792
1575 29504 31488 32336 25376 29792
1576 28864 31040 32336 25376 29792
1577 28416 29952 32336 25376 29792
1578 27520 29312 32336 25376 29792
1579 28608 29056 32336 25376 29792
1580 28736 29184 32816 24896 30352
1581 29952 29312 32816 24896 30352
1582 28992 27840 32816 24896 30352
1583 29888 27776 32816 24896 30352
1584 31040 28224 32816 24896 30352
1585 30912 27840 32816 24896 30352
1586 31424 28032 32816 24896 30352
1587 30912 27584 32816 24896 30352
1588 29632 26944 32816 24896 30352
1589 28608 25920 32816 24896 30352
1590 27072 25856 32992 23040 30784
1591 26752 25920 32992 23040 30784
1592 26112 25920 32992 23040 30784
1593 25472 26944 32992 23040 30784
1594 24896 27008 32992 23040 30784
1595 25408 27776 32992 23040 30784
1596 26368 29440 32992 23040 30784
1597 26816 29248 32992 23040 30784
1598 25216 29120 32992 23040 30784
1599 26816 30592 32992 23040 30784
1600 27968 32384 31824 22976 30272
1601 28288 33024 31824 22976 30272
1602 28224 32512 31824 22976 30272
1603 29056 32576 31824 22976 30272
1604 30464 33408 31824 22976 30272
1605 31488 33792 31824 22976 30272
1606 33344 35200 31824 22976 30272
1607 34240 35968 31824 22976 30272
1608 34176 36032 31824 22976 30272
1609 33920 36352 31824 22976 30272
1610 34240 36672 31216 22544 30240
1611 34304 37312 31216 22544 30240
1612 33984 37376 31216 22544 30240
1613 33664 37376 31216 22544 30240
1614 32768 37824 31216 22544 30240
1615 32640 37760 31216 22544 30240
1616 33280 37824 31216 22544 30240
1617 33920 37184 31216 22544 30240
1618 34112 36416 31216 22544 30240
1619 34368 35840 31216 22544 30240
1620 34048 35328 31216 22544 30240
1621 35520 35520 31216 22544 30240
1622 43072 35648 31216 22544 30240
1623 50240 35136 31216 22544 30240
1624 47680 35456 31216 22544 30240
1625 32064 36032 31216 22544 30240
1626 23616 35968 31216 22544 30240
1627 26432 35520 31216 22544 30240
1628 28992 34560 31216 22544 30240
1629 31552 33728 31216 22544 30240
1630 33344 33472 31680 24608 31552
1631 35072 33664 31680 24608 31552
1632 35392 33792 31680 24608 31552
1633 35456 34048 31680 24608 31552
1634 35968 33856 31680 24608 31552
1635 36160 33472 31680 24608 31552
1636 36416 32704 31680 24608 31552
1637 36224 31616 31680 24608 31552
1638 36416 31488 31680 24608 31552
1639 36416 31616 31680 24608 31552
1640 36672 31616 31888 24800 31600
1641 36480 32640 31888 24800 31600
1642 36352 32000 31888 24800 31600
1643 36288 32064 31888 24800 31600
1644 36544 32192 31888 24800 31600
1645 36608 31296 31888 24800 31600
1646 36736 30848 31888 24800 31600
1647 37440 30336 31888 24800 31600
1648 37824 29952 31888 24800 31600
1649 37760 29952 31888 24800 31600
1650 37888 30656 32080 24688 31344
1651 38400 31296 32080 24688 31344
1652 38336 31168 32080 24688 31344
1653 38848 31040 32080 24688 31344
1654 39104 31040 32080 24688 31344
1655 39040 30976 32080 24688 31344
1656 39104 31232 32080 24688 31344
1657 39232 31296 32080 24688 31344
1658 39168 31168 32080 24688 31344
1659 38912 31296 32080 24688 31344
1660 38592 32192 31808 24384 28320
1661 37568 32256 31808 24384 28320
1662 37184 32128 31808 24384 28320
1663 36928 32128 31808 24384 28320
1664 36800 31808 31808 24384 28320
1665 36480 31360 31808 24384 28320
1666 35712 31552 31808 24384 28320
1667 34880 31616 31808 24384 28320
1668 33408 31424 31808 24384 28320
1669 33600 32448 31808 24384 28320
1670 32768 32960 32720 24096 28752
1671 32320 34304 32720 24096 28752
1672 32512 35136 32720 24096 28752
1673 33024 35648 32720 24096 28752
1674 32768 36736 32720 24096 28752
1675 33024 38080 32720 24096 28752
1676 33088 39040 32720 24096 28752
1677 33280 38912 32720 24096 28752
1678 32960 38336 32720 24096 28752
1679 32896 37568 32720 24096 28752
1680 32512 37568 32720 24096 28752
1681 32192 37376 32720 24096 28752
1682 32256 38464 32720 24096 28752
1683 31552 38272 32720 24096 28752
1684 32192 38848 32720 24096 28752
1685 32576 39040 32720 24096 28752
1686 32192 39232 32720 24096 28752
1687 32448 39616 32720 24096 28752
1688 32320 39424 32720 24096 28752
1689 32512 38656 32720 24096 28752
1690 32192 37952 32880 24784 31776
1691 32704 37440 32880 24784 31776
1692 32960 36608 32880 24784 31776
1693 32960 36288 32880 24784 31776
1694 32704 36928 32880 24784 31776
1695 32896 37056 32880 24784 31776
1696 33152 37248 32880 24784 31776
1697 32704 37120 32880 24784 31776
1698 33280 36864 32880 24784 31776
1699 33472 37056 32880 24784 31776
1700 33792 36800 33216 25440 34976
1701 34560 36544 33216 25440 34976
1702 33984 36864 33216 25440 34976
1703 34560 37184 33216 25440 34976
1704 33472 37184 33216 25440 34976
1705 34112 37568 33216 25440 34976
1706 33664 37632 33216 25440 34976
1707 33728 37632 33216 25440 34976
1708 32704 37760 33216 25440 34976
1709 32512 37312 33216 25440 34976
1710 32256 36864 33760 24896 34640
1711 31936 36224 33760 24896 34640
1712 31616 36544 33760 24896 34640
1713 31680 36928 33760 24896 34640
1714 31744 36928 33760 24896 34640
1715 31296 36480 33760 24896 34640
1716 36160 36096 33760 24896 34640
1717 43712 36416 33760 24896 34640
1718 48256 35712 33760 24896 34640
1719 36928 35648 33760 24896 34640
1720 24000 35712 33760 24896 34640
1721 21888 35008 33760 24896 34640
1722 27520 33984 33760 24896 34640
1723 29248 33600 33760 24896 34640
1724 30720 33600 33760 24896 34640
1725 32768 33088 33760 24896 34640
1726 33536 32896 33760 24896 34640
1727 33408 33536 33760 24896 34640
1728 33280 33472 33760 24896 34640
1729 33152 33728 33760 24896 34640
1730 33216 34304 34096 24912 34592
1731 33472 34112 34096 24912 34592
1732 33472 33984 34096 24912 34592
1733 33856 33664 34096 24912 34592
1734 33728 33856 34096 24912 34592
1735 33600 33984 34096 24912 34592
1736 34112 33856 34096 24912 34592
1737 34048 34240 34096 24912 34592
1738 33856 34496 34096 24912 34592
1739 34432 34112 34096 24912 34592
1740 34240 34496 34016 25088 34368
1741 34432 34112 34016 25088 34368
1742 34688 34176 34016 25088 34368
1743 34880 34496 34016 25088 34368
1744 35072 34560 34016 25088 34368
1745 35328 34368 34016 25088 34368
1746 35328 34368 34016 25088 34368
1747 35648 34240 34016 25088 34368
1748 36032 34944 34016 25088 34368
1749 35584 35008 34016 25088 34368
1750 35712 34880 34032 24960 34496
1751 35712 35008 34032 24960 34496
1752 35584 34048 34032 24960 34496
1753 35328 34624 34032 24960 34496
1754 35328 35712 34032 24960 34496
1755 34816 36224 34032 24960 34496
1756 33408 37504 34032 24960 34496
1757 33536 37888 34032 24960 34496
1758 32960 37952 34032 24960 34496
1759 32640 38208 34032 24960 34496
1760 32192 38272 33920 24928 34688
1761 32128 38720 33920 24928 34688
1762 32064 38336 33920 24928 34688
1763 32000 37440 33920 24928 34688
1764 31936 36992 33920 24928 34688
1765 32128 37184 33920 24928 34688
1766 32448 36480 33920 24928 34688
1767 32640 36928 33920 24928 34688
1768 32768 36544 33920 24928 34688
1769 31872 36864 33920 24928 34688
1770 32768 36544 33696 24672 35232
1771 31872 35712 33696 24672 35232
1772 32256 35968 33696 24672 35232
1773 32704 36096 33696 24672 35232
1774 32064 36224 33696 24672 35232
1775 31680 35840 33696 24672 35232
1776 31936 35648 33696 24672 35232
1777 31680 35904 33696 24672 35232
1778 31680 36032 33696 24672 35232
1779 31616 35584 33696 24672 35232
1780 31808 35968 33696 24672 35232
1781 31808 36288 33696 24672 35232
1782 31680 35648 33696 24672 35232
1783 31936 35584 33696 24672 35232
1784 31680 35456 33696 24672 35232
1785 31488 35200 33696 24672 35232
1786 31616 35136 33696 24672 35232
1787 31616 34752 33696 24672 35232
1788 31360 34112 33696 24672 35232
1789 31872 34240 33696 24672 35232
1790 32256 34112 33888 24704 35200
1791 31616 34240 33888 24704 35200
1792 32000 34496 33888 24704 35200
1793 31488 33792 33888 24704 35200
1794 32256 34304 33888 24704 35200
1795 32320 33152 33888 24704 35200
1796 32000 32256 33888 24704 35200
1797 31552 31296 33888 24704 35200
1798 31296 30848 33888 24704 35200
1799 30528 30208 33888 24704 35200
1800 30208 30400 33552 25616 35040
1801 30656 31936 33552 25616 35040
1802 31104 32128 33552 25616 35040
1803 31488 31872 33552 25616 35040
1804 32192 32576 33552 25616 35040
1805 36672 33216 33552 25616 35040
1806 44608 34048 33552 25616 35040
1807 49536 34368 33552 25616 35040
1808 39168 36096 33552 25616 35040
1809 27328 36288 33552 25616 35040
1810 25856 36288 33312 24128 35232
1811 31232 36480 33312 24128 35232
1812 32128 36608 33312 24128 35232
1813 32384 36736 33312 24128 35232
1814 34176 36992 33312 24128 35232
1815 34624 37248 33312 24128 35232
1816 34368 38016 33312 24128 35232
1817 34112 38912 33312 24128 35232
1818 34240 38848 33312 24128 35232
1819 33664 39104 33312 24128 35232
1820 33664 39296 33232 25264 34336
1821 32576 39104 33232 25264 34336
1822 33088 38400 33232 25264 34336
1823 33984 38656 33232 25264 34336
1824 34048 38848 33232 25264 34336
1825 34368 38528 33232 25264 34336
1826 33984 37504 33232 25264 34336
1827 34176 36416 33232 25264 34336
1828 34048 35712 33232 25264 34336
1829 33408 35008 33232 25264 34336
1830 33600 34752 33232 25264 34336
1831 33472 34624 33232 25264 34336
1832 33408 34752 33232 25264 34336
1833 33344 34432 33232 25264 34336
1834 33600 34176 33232 25264 34336
1835 34944 34176 33232 25264 34336
1836 35520 34304 33232 25264 34336
1837 34752 35136 33232 25264 34336
1838 34304 35328 33232 25264 34336
1839 34368 34496 33232 25264 34336
1840 34752 34304 33168 25008 34560
1841 35136 33856 33168 25008 34560
1842 35200 33792 33168 25008 34560
1843 34816 33984 33168 25008 34560
1844 34112 34176 33168 25008 34560
1845 33472 34304 33168 25008 34560
1846 32640 33536 33168 25008 34560
1847 33408 33536 33168 25008 34560
1848 32640 33664 33168 25008 34560
1849 32512 33664 33168 25008 34560
1850 32960 33664 33312 24928 34336
1851 32064 33216 33312 24928 34336
1852 32384 33664 33312 24928 34336
1853 32576 33792 33312 24928 34336
1854 32256 33152 33312 24928 34336
1855 32448 32896 33312 24928 34336
1856 32192 32768 33312 24928 34336
1857 32640 32896 33312 24928 34336
1858 32640 33024 33312 24928 34336
1859 32320 33088 33312 24928 34336
1860 32640 33088 33200 24880 34528
1861 32384 32448 33200 24880 34528
1862 32512 32448 33200 24880 34528
1863 32448 32320 33200 24880 34528
1864 31936 31680 33200 24880 34528
1865 31488 30784 33200 24880 34528
1866 31680 30656 33200 24880 34528
1867 31488 30080 33200 24880 34528
1868 30592 30208 33200 24880 34528
1869 30016 29568 33200 24880 34528
1870 29696 28928 33952 24000 34496
1871 29504 28992 33952 24000 34496
1872 29632 29504 33952 24000 34496
1873 29504 29952 33952 24000 34496
1874 29824 31104 33952 24000 34496
1875 29824 31616 33952 24000 34496
1876 30080 32448 33952 24000 34496
1877 30528 32960 33952 24000 34496
1878 31296 33408 33952 24000 34496
1879 31552 33728 33952 24000 34496
1880 32064 34112 33952 24000 34496
1881 32512 34432 33952 24000 34496
1882 31744 34624 33952 24000 34496
1883 32064 34624 33952 24000 34496
1884 31808 34816 33952 24000 34496
1885 32256 35776 33952 24000 34496
1886 31360 35968 33952 24000 34496
1887 31424 36096 33952 24000 34496
1888 31104 36672 33952 24000 34496
1889 31360 36032 33952 24000 34496
1890 31360 35904 34400 25056 36640
1891 31872 35968 34400 25056 36640
1892 31552 35712 34400 25056 36640
1893 31552 36160 34400 25056 36640
1894 32320 35776 34400 25056 36640
1895 38720 35648 34400 25056 36640
1896 45568 35904 34400 25056 36640
1897 46208 35264 34400 25056 36640
1898 30336 35392 34400 25056 36640
1899 21056 35392 34400 25056 36640
1900 22528 34432 34464 24736 36352
1901 25280 34048 34464 24736 36352
1902 28032 33664 34464 24736 36352
1903 28992 34176 34464 24736 36352
1904 30848 34048 34464 24736 36352
1905 31168 34368 34464 24736 36352
1906 31808 34432 34464 24736 36352
1907 32448 34624 34464 24736 36352
1908 32384 35264 34464 24736 36352
1909 32512 35520 34464 24736 36352
1910 32960 35840 34160 24720 35888
1911 32384 35712 34160 24720 35888
1912 32896 35456 34160 24720 35888
1913 33152 35968 34160 24720 35888
1914 33088 35008 34160 24720 35888
1915 32896 33216 34160 24720 35888
1916 33024 33344 34160 24720 35888
1917 33024 33856 34160 24720 35888
1918 33792 34688 34160 24720 35888
1919 34432 33344 34160 24720 35888
1920 35264 33536 34720 22464 35712
1921 35520 33600 34720 22464 35712
1922 35712 33792 34720 22464 35712
1923 35968 34368 34720 22464 35712
1924 36544 33472 34720 22464 35712
1925 36800 32960 34720 22464 35712
1926 36544 33344 34720 22464 35712
1927 37440 34304 34720 22464 35712
1928 37632 33792 34720 22464 35712
1929 37184 33600 34720 22464 35712
1930 37056 33664 34736 23792 35584
1931 37056 34176 34736 23792 35584
1932 36096 33984 34736 23792 35584
1933 35712 33088 34736 23792 35584
1934 35008 33856 34736 23792 35584
1935 33472 34112 34736 23792 35584
1936 32768 33664 34736 23792 35584
1937 32320 33792 34736 23792 35584
1938 32128 33792 34736 23792 35584
1939 31680 34048 34736 23792 35584
1940 31744 33728 34736 23792 35584
1941 31616 33664 34736 23792 35584
1942 31552 33728 34736 23792 35584
1943 31232 33920 34736 23792 35584
1944 31552 34112 34736 23792 35584
1945 31552 33536 34736 23792 35584
1946 31424 33984 34736 23792 35584
1947 31616 33600 34736 23792 35584
1948 31360 34304 34736 23792 35584
1949 31424 34240 34736 23792 35584
1950 31360 33984 34752 24384 35408
1951 31168 34112 34752 24384 35408
1952 31296 34560 34752 24384 35408
1953 31104 34112 34752 24384 35408
1954 31424 34176 34752 24384 35408
1955 31488 34304 34752 24384 35408
1956 31168 34304 34752 24384 35408
1957 30720 34880 34752 24384 35408
1958 31104 34560 34752 24384 35408
1959 30720 33792 34752 24384 35408
1960 32512 32384 36192 25600 35232
1961 32960 32576 36192 25600 35232
1962 32640 32640 36192 25600 35232
1963 32832 32128 36192 25600 35232
1964 32960 30976 36192 25600 35232
1965 33472 30720 36192 25600 35232
1966 33344 30272 36192 25600 35232
1967 32960 29632 36192 25600 35232
1968 33856 30080 36192 25600 35232
1969 33856 30784 36192 25600 35232
1970 33472 30144 35360 25136 35504
1971 32960 31552 35360 25136 35504
1972 32960 31936 35360 25136 35504
1973 33408 32192 35360 25136 35504
1974 33280 31872 35360 25136 35504
1975 32896 32064 35360 25136 35504
1976 31616 33024 35360 25136 35504
1977 31040 35328 35360 25136 35504
1978 30272 36992 35360 25136 35504
1979 29760 36224 35360 25136 35504
1980 30336 35328 35360 25136 35504
1981 30528 34752 35360 25136 35504
1982 30528 35328 35360 25136 35504
1983 30016 35584 35360 25136 35504
1984 32896 35648 35360 25136 35504
1985 41152 35648 35360 25136 35504
1986 48064 35264 35360 25136 35504
1987 39424 35712 35360 25136 35504
1988 25152 36416 35360 25136 35504
1989 19456 35328 35360 25136 35504
1990 23296 35584 35040 25248 35440
1991 25600 34944 35040 25248 35440
1992 27648 34944 35040 25248 35440
1993 29952 35200 35040 25248 35440
1994 31616 35584 35040 25248 35440
1995 31488 35456 35040 25248 35440
1996 31808 35136 35040 25248 35440
1997 32128 35328 35040 25248 35440
1998 32320 36096 35040 25248 35440
1999 32512 35840 35040 25248 35440
2000 32704 36096 34656 25120 35232
2001 32384 36096 34656 25120 35232
2002 32512 36160 34656 25120 35232
2003 32640 35904 34656 25120 35232
2004 32960 35648 34656 25120 35232
2005 33536 35264 34656 25120 35232
2006 33152 35648 34656 25120 35232
2007 33024 35648 34656 25120 35232
2008 33536 35072 34656 25120 35232
2009 33280 35776 34656 25120 35232
2010 33664 35392 34640 25104 35216
2011 34368 35776 34640 25104 35216
2012 34496 35648 34640 25104 35216
2013 34688 35392 34640 25104 35216
2014 34624 35392 34640 25104 35216
2015 35520 35904 34640 25104 35216
2016 35520 35840 34640 25104 35216
2017 35392 36032 34640 25104 35216
2018 35008 35968 34640 25104 35216
2019 35456 35776 34640 25104 35216
2020 35264 35968 34656 25088 35248
2021 35200 35712 34656 25088 35248
2022 34560 35584 34656 25088 35248
2023 34176 35776 34656 25088 35248
2024 33664 35840 34656 25088 35248
2025 33216 35968 34656 25088 35248
2026 32640 35712 34656 25088 35248
2027 32320 35520 34656 25088 35248
2028 32448 35200 34656 25088 35248
2029 31744 36032 34656 25088 35248
2030 32448 35776 34624 25120 35264
2031 32320 35968 34624 25120 35264
2032 31936 35456 34624 25120 35264
2033 32064 35648 34624 25120 35264
2034 32448 35712 34624 25120 35264
2035 32704 35904 34624 25120 35264
2036 32448 35776 34624 25120 35264
2037 32576 36032 34624 25120 35264
2038 32512 35712 34624 25120 35264
2039 32704 35776 34624 25120 35264
2040 32576 35584 34624 25120 35264
2041 32512 35392 34624 25120 35264
2042 32384 35328 34624 25120 35264
2043 32256 35456 34624 25120 35264
2044 32448 35456 34624 25120 35264
2045 32384 35200 34624 25120 35264
2046 31744 35136 34624 25120 35264
2047 31936 35072 34624 25120 35264
2048 31872 35648 34624 25120 35264
2049 32064 35456 34624 25120 35264
2050 31616 35392 34608 25072 35344
2051 31680 35392 34608 25072 35344
2052 31936 35776 34608 25072 35344
2053 31680 35200 34608 25072 35344
2054 31488 35008 34608 25072 35344
2055 31872 34944 34608 25072 35344
2056 31232 34880 34608 25072 35344
2057 31040 34816 34608 25072 35344
2058 31360 35008 34608 25072 35344
2059 31872 34880 34608 25072 35344
2060 32512 35008 34544 25120 35360
2061 31872 34816 34544 25120 35360
2062 32064 34944 34544 25120 35360
2063 31488 34624 34544 25120 35360
2064 32064 35200 34544 25120 35360
2065 31744 34368 34544 25120 35360
2066 30976 34944 34544 25120 35360
2067 30720 34816 34544 25120 35360
2068 30528 34880 34544 25120 35360
2069 30400 34688 34544 25120 35360
2070 30400 35008 34656 25120 35328
2071 30080 34880 34656 25120 35328
2072 29824 35136 34656 25120 35328
2073 30272 34816 34656 25120 35328
2074 30784 34752 34656 25120 35328
2075 35840 34944 34656 25120 35328
2076 43328 34496 34656 25120 35328
2077 46976 35328 34656 25120 35328
2078 34496 35840 34656 25120 35328
2079 22336 35328 34656 25120 35328
2080 22784 34944 34656 25120 35328
2081 27328 34624 34656 25120 35328
2082 28608 34816 34656 25120 35328
2083 29184 34816 34656 25120 35328
2084 30912 35072 34656 25120 35328
2085 31104 34816 34656 25120 35328
2086 31360 35264 34656 25120 35328
2087 31040 34752 34656 25120 35328
2088 31488 35264 34656 25120 35328
2089 31168 34880 34656 25120 35328
2090 31232 34944 34656 25168 35312
2091 31808 34752 34656 25168 35312
2092 32064 34880 34656 25168 35312
2093 31744 35008 34656 25168 35312
2094 31680 34880 34656 25168 35312
2095 31744 34944 34656 25168 35312
2096 32128 35136 34656 25168 35312
2097 32000 35264 34656 25168 35312
2098 32192 35392 34656 25168 35312
2099 32256 35456 34656 25168 35312
2100 32384 35520 34656 25168 35280
2101 32640 35200 34656 25168 35280
2102 32512 35136 34656 25168 35280
2103 32896 35264 34656 25168 35280
2104 33152 35584 34656 25168 35280
2105 33472 35264 34656 25168 35280
2106 33792 35072 34656 25168 35280
2107 33920 35136 34656 25168 35280
2108 33728 35072 34656 25168 35280
2109 33728 35264 34656 25168 35280
2110 33856 35200 34624 25056 35232
2111 33728 35392 34624 25056 35232
2112 33728 35072 34624 25056 35232
2113 33472 34880 34624 25056 35232
2114 32768 35072 34624 25056 35232
2115 32256 35008 34624 25056 35232
2116 31744 34880 34624 25056 35232
2117 31616 34816 34624 25056 35232
2118 31104 34944 34624 25056 35232
2119 31232 34944 34624 25056 35232
2120 31168 35008 34640 25072 35200
2121 30784 35008 34640 25072 35200
2122 31232 34880 34640 25072 35200
2123 31232 35072 34640 25072 35200
2124 31232 35264 34640 25072 35200
2125 30912 35200 34640 25072 35200
2126 31040 34944 34640 25072 35200
2127 30912 35136 34640 25072 35200
2128 30976 35328 34640 25072 35200
2129 30976 35008 34640 25072 35200
2130 31232 35008 34624 25088 35184
2131 30848 34624 34624 25088 35184
2132 30592 34816 34624 25088 35184
2133 30848 34944 34624 25088 35184
2134 30912 34816 34624 25088 35184
2135 30656 34944 34624 25088 35184
2136 30720 35008 34624 25088 35184
2137 30528 35264 34624 25088 35184
2138 30720 34944 34624 25088 35184
2139 30464 34880 34624 25088 35184
2140 30784 34816 34624 25088 35184
2141 30656 34816 34624 25088 35184
2142 30208 34816 34624 25088 35184
2143 30912 35008 34624 25088 35184
2144 31296 34880 34624 25088 35184
2145 31104 34688 34624 25088 35184
2146 31232 34432 34624 25088 35184
2147 30912 34624 34624 25088 35184
2148 30912 34880 34624 25088 35184
2149 31552 35392 34624 25088 35184
2150 31040 35456 34592 25088 35168
2151 30976 35520 34592 25088 35168
2152 30784 35840 34592 25088 35168
2153 30272 36032 34592 25088 35168
2154 30336 35904 34592 25088 35168
2155 30336 35776 34592 25088 35168
2156 30336 35584 34592 25088 35168
2157 30080 35456 34592 25088 35168
2158 30208 35776 34592 25088 35168
2159 30528 35008 34592 25088 35168
2160 36096 35328 34576 25072 35184
2161 43392 35200 34576 25072 35184
2162 46272 35712 34576 25072 35184
2163 35072 35520 34576 25072 35184
2164 23872 35584 34576 25072 35184
2165 23488 35200 34576 25072 35184
2166 27968 35072 34576 25072 35184
2167 28608 35008 34576 25072 35184
2168 28736 35072 34576 25072 35184
2169 30656 35392 34576 25072 35184
2170 30784 35328 34608 25088 35216
2171 30976 35520 34608 25088 35216
2172 31104 35328 34608 25088 35216
2173 30976 35200 34608 25088 35216
2174 31168 35392 34608 25088 35216
2175 31232 35328 34608 25088 35216
2176 31488 35264 34608 25088 35216
2177 30848 35392 34608 25088 35216
2178 31424 34880 34608 25088 35216
2179 30912 34944 34608 25088 35216
2180 31296 34816 34656 24960 35200
2181 31680 34880 34656 24960 35200
2182 31488 34880 34656 24960 35200
2183 32192 35264 34656 24960 35200
2184 32320 35200 34656 24960 35200
2185 32128 35392 34656 24960 35200
2186 32512 35328 34656 24960 35200
2187 32384 35392 34656 24960 35200
2188 32896 35456 34656 24960 35200
2189 33216 35648 34656 24960 35200
2190 32704 35712 34688 24960 35248
2191 33152 34752 34688 24960 35248
2192 33280 35840 34688 24960 35248
2193 33536 35072 34688 24960 35248
2194 33408 35584 34688 24960 35248
2195 33408 35456 34688 24960 35248
2196 33088 35264 34688 24960 35248
2197 32832 35200 34688 24960 35248
2198 32960 35136 34688 24960 35248
2199 32576 35200 34688 24960 35248
2200 32256 35456 34688 24960 35248
2201 31552 34880 34688 24960 35248
2202 31104 34880 34688 24960 35248
2203 31104 35008 34688 24960 35248
2204 30656 34816 34688 24960 35248
2205 30784 34816 34688 24960 35248
2206 30720 34688 34688 24960 35248
2207 30592 34688 34688 24960 35248
2208 30976 34560 34688 24960 35248
2209 30912 34560 34688 24960 35248
2210 31104 34752 34640 25008 35248
2211 31680 35072 34640 25008 35248
2212 31104 34752 34640 25008 35248
2213 30976 34688 34640 25008 35248
2214 31360 34944 34640 25008 35248
2215 30976 34752 34640 25008 35248
2216 31104 34944 34640 25008 35248
2217 30976 35008 34640 25008 35248
2218 30912 34752 34640 25008 35248
2219 30976 35008 34640 25008 35248
2220 31168 34944 34528 25088 35264
2221 30656 34432 34528 25088 35264
2222 30912 34688 34528 25088 35264
2223 30720 34240 34528 25088 35264
2224 30464 34304 34528 25088 35264
2225 30720 34368 34528 25088 35264
2226 30464 34816 34528 25088 35264
2227 30592 34880 34528 25088 35264
2228 30528 34880 34528 25088 35264
2229 31232 34560 34528 25088 35264
2230 31744 35136 34576 25072 35232
2231 31424 34560 34576 25072 35232
2232 31232 34752 34576 25072 35232
2233 31232 34688 34576 25072 35232
2234 31296 34880 34576 25072 35232
2235 31040 34496 34576 25072 35232
2236 30656 34496 34576 25072 35232
2237 29952 34432 34576 25072 35232
2238 29696 34752 34576 25072 35232
2239 30208 34816 34576 25072 35232
2240 30080 34560 34576 25072 35232
2241 29632 35008 34576 25072 35232
2242 30016 34816 34576 25072 35232
2243 29952 35008 34576 25072 35232
2244 30784 35200 34576 25072 35232
2245 36736 34880 34576 25072 35232
2246 44800 34816 34576 25072 35232
2247 46656 35136 34576 25072 35232
2248 32384 35136 34576 25072 35232
2249 21248 34816 34576 25072 35232
2250 21632 34624 34624 25136 35232
2251 25088 34368 34624 25136 35232
2252 27456 34688 34624 25136 35232
2253 28800 34752 34624 25136 35232
2254 30592 34752 34624 25136 35232
2255 31168 34368 34624 25136 35232
2256 31296 34816 34624 25136 35232
2257 31488 34560 34624 25136 35232
2258 31232 34560 34624 25136 35232
2259 31424 34368 34624 25136 35232
2260 31552 34560 34560 25056 35232
2261 31872 34368 34560 25056 35232
2262 31808 34240 34560 25056 35232
2263 31488 34432 34560 25056 35232
2264 31744 34176 34560 25056 35232
2265 32128 34240 34560 25056 35232
2266 31936 34432 34560 25056 35232
2267 32192 34368 34560 25056 35232
2268 32256 34432 34560 25056 35232
2269 32576 34816 34560 25056 35232
2270 32896 35072 34624 25072 35248
2271 32960 34688 34624 25072 35248
2272 33856 35392 34624 25072 35248
2273 33152 35200 34624 25072 35248
2274 33664 34688 34624 25072 35248
2275 33600 34816 34624 25072 35248
2276 33536 35200 34624 25072 35248
2277 34112 35008 34624 25072 35248
2278 34368 35456 34624 25072 35248
2279 33984 35328 34624 25072 35248
2280 33728 35392 34608 25088 35216
2281 34048 36096 34608 25088 35216
2282 33856 36160 34608 25088 35216
2283 33792 37120 34608 25088 35216
2284 33152 36864 34608 25088 35216
2285 33408 36800 34608 25088 35216
2286 31936 36288 34608 25088 35216
2287 31936 36544 34608 25088 35216
2288 31808 36288 34608 25088 35216
2289 31616 36416 34608 25088 35216
2290 31424 36416 34656 25312 35200
2291 30976 36544 34656 25312 35200
2292 32000 36288 34656 25312 35200
2293 31360 35968 34656 25312 35200
2294 31552 36288 34656 25312 35200
2295 31872 36480 34656 25312 35200
2296 32064 36672 34656 25312 35200
2297 31808 36032 34656 25312 35200
2298 32000 36416 34656 25312 35200
2299 31808 36160 34656 25312 35200
2300 32192 36544 34656 25312 35200
2301 32064 36224 34656 25312 35200
2302 32128 36288 34656 25312 35200
2303 32448 36736 34656 25312 35200
2304 31872 35968 34656 25312 35200
2305 32128 36288 34656 25312 35200
2306 32256 36544 34656 25312 35200
2307 31936 36352 34656 25312 35200
2308 31616 35776 34656 25312 35200
2309 32640 36352 34656 25312 35200
2310 31808 36160 34640 25216 35200
2311 32512 36288 34640 25216 35200
2312 32128 35904 34640 25216 35200
2313 33408 36352 34640 25216 35200
2314 32320 35712 34640 25216 35200
2315 32704 35968 34640 25216 35200
2316 32064 35712 34640 25216 35200
2317 32192 35840 34640 25216 35200
2318 32448 36096 34640 25216 35200
2319 32320 35904 34640 25216 35200
2320 32064 35584 34608 25104 35280
2321 31680 35520 34608 25104 35280
2322 31040 35968 34608 25104 35280
2323 30784 35392 34608 25104 35280
2324 30784 35456 34608 25104 35280
2325 30848 35328 34608 25104 35280
2326 31168 35200 34608 25104 35280
2327 31104 35712 34608 25104 35280
2328 31872 35264 34608 25104 35280
2329 38208 35136 34608 25104 35280
2330 45696 34816 34560 25088 35232
2331 47488 35776 34560 25088 35232
2332 32768 36096 34560 25088 35232
2333 21696 35968 34560 25088 35232
2334 21888 35328 34560 25088 35232
2335 26240 35328 34560 25088 35232
2336 27968 34816 34560 25088 35232
2337 29696 34880 34560 25088 35232
2338 31744 35328 34560 25088 35232
2339 32448 35328 34560 25088 35232
2340 32512 34880 34304 25104 35184
2341 32320 35008 34304 25104 35184
2342 32640 35136 34304 25104 35184
2343 32704 35072 34304 25104 35184
2344 33024 35072 34304 25104 35184
2345 33216 35456 34304 25104 35184
2346 33408 35200 34304 25104 35184
2347 33024 35392 34304 25104 35184
2348 33472 35456 34304 25104 35184
2349 33344 35392 34304 25104 35184
2350 33600 34944 34544 25104 35184
2351 33664 34880 34544 25104 35184
2352 33600 34880 34544 25104 35184
2353 33856 35200 34544 25104 35184
2354 34048 35136 34544 25104 35184
2355 34688 35008 34544 25104 35184
2356 34432 34624 34544 25104 35184
2357 34944 34688 34544 25104 35184
2358 35264 34368 34544 25104 35184
2359 35456 34496 34544 25104 35184
2360 35456 34624 34608 25072 35152
2361 35456 34240 34608 25072 35152
2362 35008 34304 34608 25072 35152
2363 35200 33984 34608 25072 35152
2364 35136 34304 34608 25072 35152
2365 35072 34560 34608 25072 35152
2366 35008 34624 34608 25072 35152
2367 34560 34240 34608 25072 35152
2368 34304 34176 34608 25072 35152
2369 33216 34304 34608 25072 35152
2370 32960 34432 34528 24992 35168
2371 32896 34752 34528 24992 35168
2372 32576 34560 34528 24992 35168
2373 32512 34880 34528 24992 35168
2374 32192 34368 34528 24992 35168
2375 32448 34688 34528 24992 35168
2376 32512 34368 34528 24992 35168
2377 31360 34624 34528 24992 35168
2378 32000 34880 34528 24992 35168
2379 32064 34816 34528 24992 35168
2380 33088 34560 34544 25056 35168
2381 32704 34496 34544 25056 35168
2382 33216 34624 34544 25056 35168
2383 32960 34880 34544 25056 35168
2384 33408 34624 34544 25056 35168
2385 32704 34752 34544 25056 35168
2386 33088 34432 34544 25056 35168
2387 33216 34880 34544 25056 35168
2388 33152 34752 34544 25056 35168
2389 32640 34560 34544 25056 35168
2390 33152 34816 34576 25056 35232
2391 32960 34496 34576 25056 35232
2392 32576 34432 34576 25056 35232
2393 32768 34304 34576 25056 35232
2394 32704 34432 34576 25056 35232
2395 33280 34368 34576 25056 35232
2396 33856 34368 34576 25056 35232
2397 33408 33984 34576 25056 35232
2398 32576 34752 34576 25056 35232
2399 31872 34688 34576 25056 35232
2400 33344 34304 34576 25056 35232
2401 32448 34688 34576 25056 35232
2402 32640 34624 34576 25056 35232
2403 32704 34560 34576 25056 35232
2404 32192 34432 34576 25056 35232
2405 31872 35072 34576 25056 35232
2406 31936 34432 34576 25056 35232
2407 31744 34816 34576 25056 35232
2408 31936 34816 34576 25056 35232
2409 31872 35072 34576 25056 35232
2410 31680 34816 34656 25088 35264
2411 34048 35264 34656 25088 35264
2412 40768 34880 34656 25088 35264
2413 47680 35008 34656 25088 35264
2414 43584 35584 34656 25088 35264
2415 30656 35904 34656 25088 35264
2416 23936 35648 34656 25088 35264
2417 26880 35008 34656 25088 35264
2418 29568 34880 34656 25088 35264
2419 31040 35008 34656 25088 35264
2420 31488 35136 34672 25072 35184
2421 32640 34688 34672 25072 35184
2422 32512 34688 34672 25072 35184
2423 32448 34624 34672 25072 35184
2424 32576 35072 34672 25072 35184
2425 32768 35200 34672 25072 35184
2426 32704 35072 34672 25072 35184
2427 32576 35200 34672 25072 35184
2428 32832 35200 34672 25072 35184
2429 32448 35136 34672 25072 35184
2430 32832 35264 34640 25120 35216
2431 32960 35264 34640 25120 35216
2432 33088 35584 34640 25120 35216
2433 33024 35200 34640 25120 35216
2434 33024 35264 34640 25120 35216
2435 33408 35648 34640 25120 35216
2436 33664 35712 34640 25120 35216
2437 33472 35264 34640 25120 35216
2438 33216 35264 34640 25120 35216
2439 33920 35520 34640 25120 35216
2440 34304 35456 34624 25024 35168
2441 34240 35456 34624 25024 35168
2442 34304 35328 34624 25024 35168
2443 34496 35584 34624 25024 35168
2444 34688 35328 34624 25024 35168
2445 34560 35264 34624 25024 35168
2446 34560 35328 34624 25024 35168
2447 34624 35136 34624 25024 35168
2448 34496 35456 34624 25024 35168
2449 34560 35648 34624 25024 35168
2450 34240 35648 34656 25072 35152
2451 33344 35520 34656 25072 35152
2452 33088 35264 34656 25072 35152
2453 32960 35328 34656 25072 35152
2454 32704 35584 34656 25072 35152
2455 32000 35712 34656 25072 35152
2456 32448 35520 34656 25072 35152
2457 31936 35456 34656 25072 35152
2458 32192 35584 34656 25072 35152
2459 31808 35456 34656 25072 35152
2460 32384 35840 34656 25072 35152
2461 32576 36352 34656 25072 35152
2462 32576 36032 34656 25072 35152
2463 32256 36608 34656 25072 35152
2464 32704 38080 34656 25072 35152
2465 32192 38976 34656 25072 35152
2466 32448 41088 34656 25072 35152
2467 32384 42304 34656 25072 35152
2468 32320 42880 34656 25072 35152
2469 32320 43200 34656 25072 35152
2470 32384 43456 34656 25120 35168
2471 32448 43328 34656 25120 35168
2472 32640 42112 34656 25120 35168
2473 32768 42688 34656 25120 35168
2474 32512 40768 34656 25120 35168
2475 32704 40960 34656 25120 35168
2476 33280 39936 34656 25120 35168
2477 34048 40000 34656 25120 35168
2478 32960 39552 34656 25120 35168
2479 31616 39552 34656 25120 35168
2480 31872 38912 34624 25024 35200
2481 32512 38528 34624 25024 35200
2482 32384 38208 34624 25024 35200
2483 32320 37504 34624 25024 35200
2484 32192 37248 34624 25024 35200
2485 31104 36800 34624 25024 35200
2486 31744 37120 34624 25024 35200
2487 31488 36800 34624 25024 35200
2488 31424 36672 34624 25024 35200
2489 31616 36096 34624 25024 35200
2490 31488 36224 34640 25040 35216
2491 31744 36160 34640 25040 35216
2492 35776 36224 34640 25040 35216
2493 43136 36096 34640 25040 35216
2494 48128 36160 34640 25040 35216
2495 38912 36608 34640 25040 35216
2496 27712 36672 34640 25040 35216
2497 24448 36416 34640 25040 35216
2498 28032 36288 34640 25040 35216
2499 29504 35968 34640 25040 35216
2500 28224 36160 34640 25040 35216
2501 28928 35840 34640 25040 35216
2502 30976 35584 34640 25040 35216
2503 32896 35456 34640 25040 35216
2504 33536 34688 34640 25040 35216
2505 33472 33792 34640 25040 35216
2506 32768 32768 34640 25040 35216
2507 32512 32064 34640 25040 35216
2508 32384 30720 34640 25040 35216
2509 32320 30272 34640 25040 35216
2510 31808 29312 34640 25056 35232
2511 31680 28864 34640 25056 35232
2512 31488 28096 34640 25056 35232
2513 31808 28160 34640 25056 35232
2514 31552 27584 34640 25056 35232
2515 31040 27328 34640 25056 35232
2516 31680 27200 34640 25056 35232
2517 31424 27264 34640 25056 35232
2518 31744 27456 34640 25056 35232
2519 31936 27840 34640 25056 35232
2520 32384 27712 34816 25248 34976
2521 32128 27648 34816 25248 34976
2522 32448 28416 34816 25248 34976
2523 32000 28160 34816 25248 34976
2524 32704 28736 34816 25248 34976
2525 32768 28864 34816 25248 34976
2526 32384 29248 34816 25248 34976
2527 32768 29120 34816 25248 34976
2528 32704 29248 34816 25248 34976
2529 32512 29120 34816 25248 34976
2530 32512 29440 34752 25216 35104
2531 32128 29760 34752 25216 35104
2532 31936 30080 34752 25216 35104
2533 30848 30080 34752 25216 35104
2534 30784 29824 34752 25216 35104
2535 29504 29504 34752 25216 35104
2536 30464 30272 34752 25216 35104
2537 30528 29760 34752 25216 35104
2538 29824 29696 34752 25216 35104
2539 30400 30336 34752 25216 35104
2540 30208 30272 34608 25072 35168
2541 30016 30528 34608 25072 35168
2542 30592 30720 34608 25072 35168
2543 29760 30656 34608 25072 35168
2544 29824 30656 34608 25072 35168
2545 30144 30912 34608 25072 35168
2546 30272 31104 34608 25072 35168
2547 30400 31168 34608 25072 35168
2548 30144 31168 34608 25072 35168
2549 29440 30656 34608 25072 35168
2550 29888 31168 34624 25120 35296
2551 29824 31360 34624 25120 35296
2552 30144 31424 34624 25120 35296
2553 30208 31296 34624 25120 35296
2554 29696 31296 34624 25120 35296
2555 29376 31232 34624 25120 35296
2556 30464 30592 34624 25120 35296
2557 31424 31872 34624 25120 35296
2558 31360 32000 34624 25120 35296
2559 31104 32256 34624 25120 35296
2560 29312 31936 34624 25120 35296
2561 29760 31936 34624 25120 35296
2562 29888 32192 34624 25120 35296
2563 29056 31872 34624 25120 35296
2564 29120 31872 34624 25120 35296
2565 29312 32000 34624 25120 35296
2566 28608 31744 34624 25120 35296
2567 28992 31552 34624 25120 35296
2568 29312 32320 34624 25120 35296
2569 29248 32448 34624 25120 35296
2570 29376 32384 34608 25152 35216
2571 29056 32128 34608 25152 35216
2572 28992 31808 34608 25152 35216
2573 34048 32000 34608 25152 35216
2574 41792 31744 34608 25152 35216
2575 45952 32064 34608 25152 35216
2576 34560 32832 34608 25152 35216
2577 22656 32896 34608 25152 35216
2578 20224 32192 34608 25152 35216
2579 24512 32192 34608 25152 35216
2580 26240 32576 34624 25088 35184
2581 26944 32640 34624 25088 35184
2582 29056 32256 34624 25088 35184
2583 29440 32448 34624 25088 35184
2584 29696 32512 34624 25088 35184
2585 29888 32960 34624 25088 35184
2586 30144 32576 34624 25088 35184
2587 30016 32704 34624 25088 35184
2588 30272 32448 34624 25088 35184
2589 30272 32512 34624 25088 35184
2590 30336 32640 34656 24992 35200
2591 30528 32960 34656 24992 35200
2592 30144 32384 34656 24992 35200
2593 30144 32704 34656 24992 35200
2594 30144 32960 34656 24992 35200
2595 30912 33536 34656 24992 35200
2596 31040 33536 34656 24992 35200
2597 31680 33728 34656 24992 35200
2598 30912 33088 34656 24992 35200
2599 31744 33408 34656 24992 35200
2600 31744 33280 34656 24992 35200
2601 32320 32576 34656 24992 35200
2602 32320 32384 34656 24992 35200
2603 32384 32256 34656 24992 35200
2604 32768 31872 34656 24992 35200
2605 32832 32384 34656 24992 35200
2606 33024 32448 34656 24992 35200
2607 33216 33024 34656 24992 35200
2608 32960 32640 34656 24992 35200
2609 32640 32640 34656 24992 35200
2610 32320 32640 34624 25008 35200
2611 32320 32896 34624 25008 35200
2612 31936 32704 34624 25008 35200
2613 30720 32768 34624 25008 35200
2614 30400 32512 34624 25008 35200
2615 30336 32192 34624 25008 35200
2616 29568 32320 34624 25008 35200
2617 30272 33088 34624 25008 35200
2618 29568 32320 34624 25008 35200
2619 29696 33088 34624 25008 35200
2620 29504 32832 34608 25024 35168
2621 29568 32576 34608 25024 35168
2622 29888 32768 34608 25024 35168
2623 29760 32448 34608 25024 35168
2624 29696 32192 34608 25024 35168
2625 29440 32832 34608 25024 35168
2626 29952 32704 34608 25024 35168
2627 30080 32704 34608 25024 35168
2628 30080 32832 34608 25024 35168
2629 29760 32960 34608 25024 35168
2630 30208 32640 34624 25024 35200
2631 29632 32384 34624 25024 35200
2632 29632 32896 34624 25024 35200
2633 29568 32448 34624 25024 35200
2634 29888 32512 34624 25024 35200
2635 29504 32512 34624 25024 35200
2636 29696 33088 34624 25024 35200
2637 29376 32512 34624 25024 35200
2638 28544 31808 34624 25024 35200
2639 29760 33024 34624 25024 35200
2640 29696 33216 34624 25024 35152
2641 29632 32960 34624 25024 35152
2642 29824 32896 34624 25024 35152
2643 30720 32960 34624 25024 35152
2644 30144 33088 34624 25024 35152
2645 30080 32704 34624 25024 35152
2646 29568 32384 34624 25024 35152
2647 30400 32832 34624 25024 35152
2648 30080 33088 34624 25024 35152
2649 30464 33472 34624 25024 35152
2650 29312 33024 34576 25040 35184
2651 29184 33216 34576 25040 35184
2652 28800 33216 34576 25040 35184
2653 28800 33280 34576 25040 35184
2654 28736 33344 34576 25040 35184
2655 28480 33024 34576 25040 35184
2656 28864 33216 34576 25040 35184
2657 29056 33024 34576 25040 35184
2658 30400 33344 34576 25040 35184
2659 37568 33664 34576 25040 35184
2660 44928 33280 34576 25040 35184
2661 42304 33344 34576 25040 35184
2662 26688 34112 34576 25040 35184
2663 18688 33600 34576 25040 35184
2664 21248 33344 34576 25040 35184
2665 22976 32704 34576 25040 35184
2666 25600 33024 34576 25040 35184
2667 28416 33792 34576 25040 35184
2668 29696 33024 34576 25040 35184
2669 30528 33472 34576 25040 35184
2670 30656 33792 34624 24992 35136
2671 30720 33152 34624 24992 35136
2672 30848 33152 34624 24992 35136
2673 31168 33664 34624 24992 35136
2674 31104 34368 34624 24992 35136
2675 30336 34112 34624 24992 35136
2676 30720 34944 34624 24992 35136
2677 31360 35520 34624 24992 35136
2678 32064 35392 34624 24992 35136
2679 32064 35328 34624 24992 35136
2680 31872 35008 34608 25008 35168
2681 31104 34496 34608 25008 35168
2682 32320 34944 34608 25008 35168
2683 32320 35008 34608 25008 35168
2684 32192 34816 34608 25008 35168
2685 32384 35008 34608 25008 35168
2686 32832 34880 34608 25008 35168
2687 32704 34240 34608 25008 35168
2688 32640 33856 34608 25008 35168
2689 33344 34048 34608 25008 35168
2690 33408 34688 34640 25040 35200
2691 33536 34368 34640 25040 35200
2692 33216 34176 34640 25040 35200
2693 33536 34752 34640 25040 35200
2694 33152 34176 34640 25040 35200
2695 32896 34368 34640 25040 35200
2696 32704 34688 34640 25040 35200
2697 32640 34880 34640 25040 35200
2698 31808 34368 34640 25040 35200
2699 30912 33728 34640 25040 35200
2700 31168 34496 34592 25088 35040
2701 30592 34048 34592 25088 35040
2702 30336 34112 34592 25088 35040
2703 30400 33984 34592 25088 35040
2704 30464 34304 34592 25088 35040
2705 30272 34112 34592 25088 35040
2706 30464 34176 34592 25088 35040
2707 30336 33920 34592 25088 35040
2708 30336 34176 34592 25088 35040
2709 30144 33664 34592 25088 35040
2710 30528 34112 34592 25088 35040
2711 30464 34368 34592 25088 35040
2712 29952 34176 34592 25088 35040
2713 30336 34176 34592 25088 35040
2714 30336 34176 34592 25088 35040
2715 30912 34240 34592 25088 35040
2716 30592 33920 34592 25088 35040
2717 29632 33856 34592 25088 35040
2718 30848 34560 34592 25088 35040
2719 30592 34240 34592 25088 35040
2720 30272 33920 34608 25088 35088
2721 30016 33920 34608 25088 35088
2722 30144 34624 34608 25088 35088
2723 29952 34240 34608 25088 35088
2724 30208 34560 34608 25088 35088
2725 30208 33984 34608 25088 35088
2726 29952 33728 34608 25088 35088
2727 29760 33472 34608 25088 35088
2728 30208 33856 34608 25088 35088
2729 29632 33408 34608 25088 35088
2730 29632 33280 34656 25088 35104
2731 30208 34112 34656 25088 35104
2732 30272 33792 34656 25088 35104
2733 30336 33792 34656 25088 35104
2734 30144 33472 34656 25088 35104
2735 30784 33856 34656 25088 35104
2736 31424 33728 34656 25088 35104
2737 31488 33664 34656 25088 35104
2738 30656 32896 34656 25088 35104
2739 30784 33728 34656 25088 35104
2740 31168 33728 34624 25152 35136
2741 30336 32960 34624 25152 35136
2742 31040 33920 34624 25152 35136
2743 29568 33280 34624 25152 35136
2744 29760 33792 34624 25152 35136
2745 29824 33664 34624 25152 35136
2746 29632 33792 34624 25152 35136
2747 29824 33920 34624 25152 35136
2748 30144 33728 34624 25152 35136
2749 29248 33280 34624 25152 35136
2750 30400 33088 34640 25152 35136
2751 37312 33920 34640 25152 35136
2752 44352 33536 34640 25152 35136
2753 44672 34880 34640 25152 35136
2754 27328 34816 34640 25152 35136
2755 18560 34496 34640 25152 35136
2756 19648 33920 34640 25152 35136
2757 22464 33408 34640 25152 35136
2758 26368 33728 34640 25152 35136
2759 28032 33536 34640 25152 35136
2760 30912 34432 34640 25152 35136
2761 30784 34048 34640 25152 35136
2762 30848 34112 34640 25152 35136
2763 31296 33984 34640 25152 35136
2764 30784 33536 34640 25152 35136
2765 31680 34176 34640 25152 35136
2766 31552 34176 34640 25152 35136
2767 31680 34368 34640 25152 35136
2768 31680 33920 34640 25152 35136
2769 31232 33792 34640 25152 35136
2770 31808 34368 34608 25120 35104
2771 31808 34112 34608 25120 35104
2772 31552 34048 34608 25120 35104
2773 31872 34368 34608 25120 35104
2774 32000 34432 34608 25120 35104
2775 32448 34880 34608 25120 35104
2776 31936 34112 34608 25120 35104
2777 32256 34048 34608 25120 35104
2778 33088 34624 34608 25120 35104
2779 32832 34560 34608 25120 35104
2780 33024 34112 34624 25152 35104
2781 33280 34304 34624 25152 35104
2782 32704 34176 34624 25152 35104
2783 33344 34880 34624 25152 35104
2784 32768 34432 34624 25152 35104
2785 33408 34880 34624 25152 35104
2786 33536 34496 34624 25152 35104
2787 32704 34432 34624 25152 35104
2788 33024 35008 34624 25152 35104
2789 32512 34368 34624 25152 35104
2790 32448 34624 34608 25088 35104
2791 31808 34816 34608 25088 35104
2792 31168 34304 34608 25088 35104
2793 30784 34752 34608 25088 35104
2794 30592 34496 34608 25088 35104
2795 30784 35136 34608 25088 35104
2796 30976 35328 34608 25088 35104
2797 30144 34560 34608 25088 35104
2798 30784 36224 34608 25088 35104
2799 30976 37056 34608 25088 35104
2800 30400 37696 34640 25088 35136
2801 30464 38656 34640 25088 35136
2802 30848 40448 34640 25088 35136
2803 30592 41024 34640 25088 35136
2804 30720 42688 34640 25088 35136
2805 31040 43392 34640 25088 35136
2806 30464 43840 34640 25088 35136
2807 30848 44864 34640 25088 35136
2808 30592 44928 34640 25088 35136
2809 30272 44608 34640 25088 35136
2810 30464 44608 34656 25056 35200
2811 30784 44416 34656 25056 35200
2812 30464 44160 34656 25056 35200
2813 30976 43776 34656 25056 35200
2814 30336 42752 34656 25056 35200
2815 30976 42688 34656 25056 35200
2816 30400 41792 34656 25056 35200
2817 30656 41216 34656 25056 35200
2818 30400 40448 34656 25056 35200
2819 30016 40064 34656 25056 35200
2820 30336 39488 34656 25056 35200
2821 30656 39808 34656 25056 35200
2822 30528 39488 34656 25056 35200
2823 30656 38656 34656 25056 35200
2824 30336 38336 34656 25056 35200
2825 30336 38208 34656 25056 35200
2826 30656 37632 34656 25056 35200
2827 31168 37888 34656 25056 35200
2828 32064 37504 34656 25056 35200
2829 31360 36928 34656 25056 35200
2830 31168 36416 34624 25056 35168
2831 31872 37312 34624 25056 35168
2832 32000 36864 34624 25056 35168
2833 31104 36160 34624 25056 35168
2834 30912 36032 34624 25056 35168
2835 30912 36224 34624 25056 35168
2836 30336 36032 34624 25056 35168
2837 30208 35904 34624 25056 35168
2838 29376 34944 34624 25056 35168
2839 30656 35904 34624 25056 35168
2840 30464 35904 34624 25024 35168
2841 30208 35520 34624 25024 35168
2842 29952 35648 34624 25024 35168
2843 32000 35776 34624 25024 35168
2844 38080 35200 34624 25024 35168
2845 45056 35200 34624 25024 35168
2846 43008 35648 34624 25024 35168
2847 29888 35712 34624 25024 35168
2848 22208 35648 34624 25024 35168
2849 25344 35264 34624 25024 35168
2850 27968 35136 34656 25056 35168
2851 28672 35328 34656 25056 35168
2852 29568 35008 34656 25056 35168
2853 30784 34688 34656 25056 35168
2854 30720 34944 34656 25056 35168
2855 30848 34688 34656 25056 35168
2856 30592 34048 34656 25056 35168
2857 30848 34304 34656 25056 35168
2858 30912 33856 34656 25056 35168
2859 30912 33600 34656 25056 35168
2860 30848 33088 34656 25056 35168
2861 30720 33664 34656 25056 35168
2862 30848 33280 34656 25056 35168
2863 31296 33856 34656 25056 35168
2864 30976 33408 34656 25056 35168
2865 31424 33536 34656 25056 35168
2866 31104 33728 34656 25056 35168
2867 31488 33280 34656 25056 35168
2868 31488 33408 34656 25056 35168
2869 31552 33600 34656 25056 35168
2870 31872 33536 34608 25072 35136
2871 31936 33024 34608 25072 35136
2872 32448 33280 34608 25072 35136
2873 32512 33344 34608 25072 35136
2874 32576 33344 34608 25072 35136
2875 32576 33536 34608 25072 35136
2876 32896 33920 34608 25072 35136
2877 32832 33856 34608 25072 35136
2878 32000 32896 34608 25072 35136
2879 33280 33792 34608 25072 35136
2880 32448 32960 34608 25072 35200
2881 32320 32960 34608 25072 35200
2882 32384 33344 34608 25072 35200
2883 32512 33664 34608 25072 35200
2884 31680 33408 34608 25072 35200
2885 30720 32960 34608 25072 35200
2886 30720 32704 34608 25072 35200
2887 30592 33536 34608 25072 35200
2888 30720 32896 34608 25072 35200
2889 30400 32512 34608 25072 35200
2890 30336 32000 34624 25088 35104
2891 29824 31552 34624 25088 35104
2892 30592 31936 34624 25088 35104
2893 30336 31168 34624 25088 35104
2894 30272 31488 34624 25088 35104
2895 30144 31616 34624 25088 35104
2896 30784 31616 34624 25088 35104
2897 30656 32000 34624 25088 35104
2898 30400 32000 34624 25088 35104
2899 30400 31616 34624 25088 35104
2900 30720 31808 34576 25072 35104
2901 30720 32256 34576 25072 35104
2902 30400 31680 34576 25072 35104
2903 30016 31616 34576 25072 35104
2904 30272 31936 34576 25072 35104
2905 30336 32000 34576 25072 35104
2906 30144 31744 34576 25072 35104
2907 30016 31936 34576 25072 35104
2908 30080 32000 34576 25072 35104
2909 30272 32320 34576 25072 35104
2910 30080 32000 34576 25088 35152
2911 29952 32384 34576 25088 35152
2912 30208 32320 34576 25088 35152
2913 29696 32000 34576 25088 35152
2914 30080 31808 34576 25088 35152
2915 31360 32896 34576 25088 35152
2916 30912 32832 34576 25088 35152
2917 30400 32576 34576 25088 35152
2918 29888 32448 34576 25088 35152
2919 30464 32576 34576 25088 35152
2920 30208 32704 34576 25088 35152
2921 30848 32896 34576 25088 35152
2922 30016 32704 34576 25088 35152
2923 29632 32768 34576 25088 35152
2924 29888 33216 34576 25088 35152
2925 29696 32960 34576 25088 35152
2926 29120 32704 34576 25088 35152
2927 29504 32768 34576 25088 35152
2928 29568 32640 34576 25088 35152
2929 29248 32704 34576 25088 35152
2930 31488 32896 34720 25056 35232
2931 38912 32704 34720 25056 35232
2932 45056 32960 34720 25056 35232
2933 41664 33280 34720 25056 35232
2934 27840 32704 34720 25056 35232
2935 21952 33856 34720 25056 35232
2936 25792 33344 34720 25056 35232
2937 27008 33216 34720 25056 35232
2938 28224 33600 34720 25056 35232
2939 29568 33216 34720 25056 35232
2940 30080 33472 34672 25056 35168
2941 30912 33728 34672 25056 35168
2942 30656 33536 34672 25056 35168
2943 30656 33216 34672 25056 35168
2944 30784 33408 34672 25056 35168
2945 30848 33088 34672 25056 35168
2946 30656 33408 34672 25056 35168
2947 31296 33024 34672 25056 35168
2948 31104 33152 34672 25056 35168
2949 31616 33408 34672 25056 35168
2950 31616 33728 34688 25056 35184
2951 31296 33536 34688 25056 35184
2952 31488 33536 34688 25056 35184
2953 31680 33536 34688 25056 35184
2954 31744 33408 34688 25056 35184
2955 31680 33600 34688 25056 35184
2956 32448 33984 34688 25056 35184
2957 32896 33920 34688 25056 35184
2958 32192 33152 34688 25056 35184
2959 32640 33216 34688 25056 35184
2960 33344 33856 34592 25024 35136
2961 33280 33536 34592 25024 35136
2962 32896 33472 34592 25024 35136
2963 33344 33600 34592 25024 35136
2964 32896 33920 34592 25024 35136
2965 33344 33792 34592 25024 35136
2966 33408 34048 34592 25024 35136
2967 33280 33856 34592 25024 35136
2968 33088 34112 34592 25024 35136
2969 33280 34432 34592 25024 35136
2970 32128 33920 34592 25024 35136
2971 31808 34048 34592 25024 35136
2972 31680 34176 34592 25024 35136
2973 31552 33920 34592 25024 35136
2974 30784 34112 34592 25024 35136
2975 30848 33792 34592 25024 35136
2976 30912 33664 34592 25024 35136
2977 31296 33856 34592 25024 35136
2978 31040 33792 34592 25024 35136
2979 30592 33600 34592 25024 35136
2980 30912 33856 34608 25040 35136
2981 31424 34176 34608 25040 35136
2982 31040 33920 34608 25040 35136
2983 31296 34048 34608 25040 35136
2984 31360 33984 34608 25040 35136
2985 30912 33728 34608 25040 35136
2986 30720 33792 34608 25040 35136
2987 31296 34368 34608 25040 35136
2988 31360 34112 34608 25040 35136
2989 31296 34048 34608 25040 35136
2990 30976 33728 34624 25040 35152
2991 31040 34048 34624 25040 35152
2992 30720 33472 34624 25040 35152
2993 31104 33920 34624 25040 35152
2994 31168 33856 34624 25040 35152
2995 30912 34048 34624 25040 35152
2996 31040 34368 34624 25040 35152
2997 30784 34048 34624 25040 35152
2998 30848 34432 34624 25040 35152
2999 30848 34368 34624 25040 35152
3000 30784 34048 34688 25056 35104
3001 30528 34240 34688 25056 35104
3002 30720 34112 34688 25056 35104
3003 30784 34560 34688 25056 35104
3004 31936 34560 34688 25056 35104
3005 32192 34368 34688 25056 35104
3006 31936 34880 34688 25056 35104
3007 32384 34880 34688 25056 35104
3008 31488 34688 34688 25056 35104
3009 32192 34560 34688 25056 35104
3010 32256 34880 34656 25072 35072
3011 31552 34496 34656 25072 35072
3012 30976 34432 34656 25072 35072
3013 30336 33856 34656 25072 35072
3014 30528 34816 34656 25072 35072
3015 30912 35072 34656 25072 35072
3016 30528 34624 34656 25072 35072
3017 30336 34688 34656 25072 35072
3018 30400 34624 34656 25072 35072
3019 30720 34624 34656 25072 35072
3020 34496 34496 34656 25072 35072
3021 41792 34624 34656 25072 35072
3022 47744 34240 34656 25072 35072
3023 37760 34624 34656 25072 35072
3024 24640 35008 34656 25072 35072
3025 20672 34944 34656 25072 35072
3026 25216 34176 34656 25072 35072
3027 26368 33920 34656 25072 35072
3028 28608 34624 34656 25072 35072
3029 30528 34752 34656 25072 35072
3030 31744 34816 34640 25072 35056
3031 31680 34432 34640 25072 35056
3032 31680 34112 34640 25072 35056
3033 31552 34112 34640 25072 35056
3034 32512 34368 34640 25072 35056
3035 32320 34432 34640 25072 35056
3036 32128 34304 34640 25072 35056
3037 31680 33920 34640 25072 35056
3038 32256 34560 34640 25072 35056
3039 32704 34944 34640 25072 35056
3040 32704 35200 34656 25056 35168
3041 32704 34688 34656 25056 35168
3042 32704 34304 34656 25056 35168
3043 32640 34112 34656 25056 35168
3044 33024 34624 34656 25056 35168
3045 33344 34752 34656 25056 35168
3046 33344 34880 34656 25056 35168
3047 33344 34176 34656 25056 35168
3048 33600 34368 34656 25056 35168
3049 34368 34688 34656 25056 35168
3050 34048 34432 34624 25024 35152
3051 34176 34688 34624 25024 35152
3052 34624 34944 34624 25024 35152
3053 34560 34496 34624 25024 35152
3054 34624 34624 34624 25024 35152
3055 34624 34624 34624 25024 35152
3056 34368 34304 34624 25024 35152
3057 33792 34560 34624 25024 35152
3058 33984 34752 34624 25024 35152
3059 33088 34752 34624 25024 35152
3060 32640 34368 34640 25072 35120
3061 32192 34624 34640 25072 35120
3062 32064 34688 34640 25072 35120
3063 31872 35008 34640 25072 35120
3064 31296 34752 34640 25072 35120
3065 31552 34816 34640 25072 35120
3066 30848 34624 34640 25072 35120
3067 30848 34496 34640 25072 35120
3068 31424 34432 34640 25072 35120
3069 31424 35008 34640 25072 35120
3070 31296 34816 34560 24992 35168
3071 31360 34880 34560 24992 35168
3072 31488 35008 34560 24992 35168
3073 31232 34432 34560 24992 35168
3074 31232 34880 34560 24992 35168
3075 31680 34752 34560 24992 35168
3076 31552 34688 34560 24992 35168
3077 31424 34752 34560 24992 35168
3078 31424 34880 34560 24992 35168
3079 31680 34624 34560 24992 35168
3080 31168 34496 34560 24992 35168
3081 31488 34944 34560 24992 35168
3082 30912 34816 34560 24992 35168
3083 31488 34880 34560 24992 35168
3084 31104 34176 34560 24992 35168
3085 31360 35648 34560 24992 35168
3086 31232 35328 34560 24992 35168
3087 31040 35584 34560 24992 35168
3088 31232 35968 34560 24992 35168
3089 31040 35776 34560 24992 35168
3090 30976 35904 34608 24976 35136
3091 31232 35968 34608 24976 35136
3092 31104 35776 34608 24976 35136
3093 31360 35840 34608 24976 35136
3094 31040 35136 34608 24976 35136
3095 31552 35904 34608 24976 35136
3096 31808 35648 34608 24976 35136
3097 32448 35392 34608 24976 35136
3098 31872 35456 34608 24976 35136
3099 32384 35712 34608 24976 35136
3100 32064 35520 34624 24992 35152
3101 32704 35584 34624 24992 35152
3102 32000 35456 34624 24992 35152
3103 31872 35456 34624 24992 35152
3104 31296 35200 34624 24992 35152
3105 30528 35072 34624 24992 35152
3106 30208 35136 34624 24992 35152
3107 30784 35712 34624 24992 35152
3108 30912 35776 34624 24992 35152
3109 30400 35456 34624 24992 35152
3110 30208 35456 34656 25120 35168
3111 30720 35520 34656 25120 35168
3112 33856 35264 34656 25120 35168
3113 41728 35328 34656 25120 35168
3114 47872 35328 34656 25120 35168
3115 37696 35776 34656 25120 35168
3116 23872 36224 34656 25120 35168
3117 19776 36160 34656 25120 35168
3118 23744 35264 34656 25120 35168
3119 25664 35712 34656 25120 35168
3120 28032 35904 34656 25120 35168
3121 30144 36096 34656 25120 35168
3122 31552 36352 34656 25120 35168
3123 31808 37952 34656 25120 35168
3124 31744 38208 34656 25120 35168
3125 32064 39424 34656 25120 35168
3126 31744 39936 34656 25120 35168
3127 32256 41536 34656 25120 35168
3128 32384 41664 34656 25120 35168
3129 32256 42112 34656 25120 35168
3130 32512 42240 34656 25136 35104
3131 32832 41920 34656 25136 35104
3132 33152 41920 34656 25136 35104
3133 32448 40640 34656 25136 35104
3134 33152 41152 34656 25136 35104
3135 33024 40128 34656 25136 35104
3136 33024 39680 34656 25136 35104
3137 33792 39552 34656 25136 35104
3138 33856 38912 34656 25136 35104
3139 34112 38592 34656 25136 35104
3140 34368 38336 34720 25104 35120
3141 34496 37568 34720 25104 35120
3142 35072 37824 34720 25104 35120
3143 35072 37504 34720 25104 35120
3144 34944 37120 34720 25104 35120
3145 34944 36800 34720 25104 35120
3146 34944 36800 34720 25104 35120
3147 34944 36288 34720 25104 35120
3148 34752 36544 34720 25104 35120
3149 34112 35904 34720 25104 35120
3150 34176 35776 34624 24960 35040
3151 33536 35072 34624 24960 35040
3152 33728 35840 34624 24960 35040
3153 33216 35776 34624 24960 35040
3154 32896 35328 34624 24960 35040
3155 32320 35136 34624 24960 35040
3156 31936 34880 34624 24960 35040
3157 31744 34496 34624 24960 35040
3158 32064 34624 34624 24960 35040
3159 32064 34432 34624 24960 35040
3160 31872 34752 34624 25008 35088
3161 32192 35008 34624 25008 35088
3162 31936 34560 34624 25008 35088
3163 31936 34688 34624 25008 35088
3164 32000 34624 34624 25008 35088
3165 31616 34304 34624 25008 35088
3166 32064 34560 34624 25008 35088
3167 31872 34560 34624 25008 35088
3168 32064 34688 34624 25008 35088
3169 31296 34048 34624 25008 35088
3170 31936 34368 34656 24976 35168
3171 31744 34688 34656 24976 35168
3172 31552 34752 34656 24976 35168
3173 31296 34560 34656 24976 35168
3174 31552 35200 34656 24976 35168
3175 31360 34880 34656 24976 35168
3176 32128 35776 34656 24976 35168
3177 31488 35200 34656 24976 35168
3178 31232 34944 34656 24976 35168
3179 31040 35200 34656 24976 35168
3180 31040 34560 34688 25088 35136
3181 31296 33728 34688 25088 35136
3182 30976 32832 34688 25088 35136
3183 31104 32704 34688 25088 35136
3184 30528 32000 34688 25088 35136
3185 30784 31104 34688 25088 35136
3186 30912 31296 34688 25088 35136
3187 31616 31296 34688 25088 35136
3188 32320 31552 34688 25088 35136
3189 31616 31808 34688 25088 35136
3190 32256 32064 34688 25088 35136
3191 32064 32064 34688 25088 35136
3192 32000 31808 34688 25088 35136
3193 31872 32000 34688 25088 35136
3194 31488 31744 34688 25088 35136
3195 30912 32064 34688 25088 35136
3196 29888 31680 34688 25088 35136
3197 30144 31744 34688 25088 35136
3198 30592 32064 34688 25088 35136
3199 30336 31936 34688 25088 35136
3200 30144 32064 34688 25088 35168
3201 30464 31936 34688 25088 35168
3202 30656 32000 34688 25088 35168
3203 35840 32192 34688 25088 35168
3204 43136 32384 34688 25088 35168
3205 46720 32640 34688 25088 35168
3206 34432 33408 34688 25088 35168
3207 21632 33216 34688 25088 35168
3208 20224 32896 34688 25088 35168
3209 25920 32704 34688 25088 35168
3210 26816 32512 34624 25056 35152
3211 28736 32384 34624 25056 35152
3212 30784 32320 34624 25056 35152
3213 31360 32704 34624 25056 35152
3214 31232 32576 34624 25056 35152
3215 31360 32256 34624 25056 35152
3216 32128 32832 34624 25056 35152
3217 31872 32768 34624 25056 35152
3218 31616 32576 34624 25056 35152
3219 31680 32512 34624 25056 35152
3220 31936 32768 34592 25088 35168
3221 32128 33024 34592 25088 35168
3222 31936 32640 34592 25088 35168
3223 31808 32768 34592 25088 35168
3224 31936 32640 34592 25088 35168
3225 32512 32704 34592 25088 35168
3226 32512 32896 34592 25088 35168
3227 32640 32896 34592 25088 35168
3228 33024 32640 34592 25088 35168
3229 32640 32832 34592 25088 35168
3230 33216 33152 34592 25088 35168
3231 33408 33088 34592 25088 35168
3232 33920 33536 34592 25088 35168
3233 33856 33216 34592 25088 35168
3234 33728 32896 34592 25088 35168
3235 33984 33344 34592 25088 35168
3236 33920 33856 34592 25088 35168
3237 34304 33664 34592 25088 35168
3238 33920 33408 34592 25088 35168
3239 33344 33600 34592 25088 35168
3240 33472 33344 34624 25088 35136
3241 34240 33600 34624 25088 35136
3242 33280 33088 34624 25088 35136
3243 33088 33536 34624 25088 35136
3244 32640 33728 34624 25088 35136
3245 32320 33664 34624 25088 35136
3246 31616 32960 34624 25088 35136
3247 31872 34240 34624 25088 35136
3248 31296 33344 34624 25088 35136
3249 31232 33152 34624 25088 35136
3250 31232 33280 34656 25072 35088
3251 31424 33280 34656 25072 35088
3252 31104 33152 34656 25072 35088
3253 31488 33344 34656 25072 35088
3254 31168 33152 34656 25072 35088
3255 31360 32960 34656 25072 35088
3256 31424 33024 34656 25072 35088
3257 31424 33024 34656 25072 35088
3258 31744 33344 34656 25072 35088
3259 31808 33600 34656 25072 35088
3260 32000 33088 34688 25088 35008
3261 31040 32704 34688 25088 35008
3262 31872 33088 34688 25088 35008
3263 31808 33024 34688 25088 35008
3264 31616 33216 34688 25088 35008
3265 30976 33088 34688 25088 35008
3266 31040 33024 34688 25088 35008
3267 30976 32832 34688 25088 35008
3268 31424 33728 34688 25088 35008
3269 31488 33408 34688 25088 35008
3270 31168 33600 34688 25104 35072
3271 31552 32896 34688 25104 35072
3272 32064 33728 34688 25104 35072
3273 31040 33664 34688 25104 35072
3274 31744 33408 34688 25104 35072
3275 31680 34240 34688 25104 35072
3276 32128 34304 34688 25104 35072
3277 32064 34368 34688 25104 35072
3278 31616 34048 34688 25104 35072
3279 31296 34176 34688 25104 35072
3280 31104 34240 34688 25104 35072
3281 31040 34048 34688 25104 35072
3282 30848 34304 34688 25104 35072
3283 30592 33984 34688 25104 35072
3284 30464 34368 34688 25104 35072
3285 30528 34304 34688 25104 35072
3286 30592 33984 34688 25104 35072
3287 34048 33664 34688 25104 35072
3288 41600 33792 34688 25104 35072
3289 47040 33920 34688 25104 35072
3290 39872 34752 34640 25088 35120
3291 27712 34560 34640 25088 35120
3292 24448 34496 34640 25088 35120
3293 27840 34112 34640 25088 35120
3294 29120 33664 34640 25088 35120
3295 29888 34432 34640 25088 35120
3296 30912 34432 34640 25088 35120
3297 31680 34688 34640 25088 35120
3298 31936 34624 34640 25088 35120
3299 31232 34432 34640 25088 35120
3300 31552 34432 34784 25088 35104
3301 31296 34176 34784 25088 35104
3302 31872 34432 34784 25088 35104
3303 31232 34176 34784 25088 35104
3304 31488 34496 34784 25088 35104
3305 32064 34688 34784 25088 35104
3306 31680 34496 34784 25088 35104
3307 31808 34496 34784 25088 35104
3308 32320 34880 34784 25088 35104
3309 31936 34688 34784 25088 35104
3310 31744 34496 34736 25088 35136
3311 32128 34688 34736 25088 35136
3312 31552 34432 34736 25088 35136
3313 32512 34944 34736 25088 35136
3314 32960 34240 34736 25088 35136
3315 32704 33984 34736 25088 35136
3316 32832 33920 34736 25088 35136
3317 33152 34176 34736 25088 35136
3318 33984 34112 34736 25088 35136
3319 33984 34304 34736 25088 35136
3320 34560 34880 34688 25056 35120
3321 33728 34112 34688 25056 35120
3322 33536 33984 34688 25056 35120
3323 34112 34304 34688 25056 35120
3324 34048 34304 34688 25056 35120
3325 33472 34112 34688 25056 35120
3326 32960 33792 34688 25056 35120
3327 33472 34048 34688 25056 35120
3328 32640 33984 34688 25056 35120
3329 31616 33920 34688 25056 35120
3330 31040 33728 34720 25056 35168
3331 31296 33984 34720 25056 35168
3332 31488 34176 34720 25056 35168
3333 31104 34176 34720 25056 35168
3334 31360 33984 34720 25056 35168
3335 31488 34112 34720 25056 35168
3336 31040 34048 34720 25056 35168
3337 31104 33792 34720 25056 35168
3338 31552 34240 34720 25056 35168
3339 31808 34048 34720 25056 35168
3340 31872 34176 34720 25056 35168
3341 31744 34176 34720 25056 35168
3342 31616 34240 34720 25056 35168
3343 31424 34176 34720 25056 35168
3344 31616 34432 34720 25056 35168
3345 31040 33856 34720 25056 35168
3346 31168 34112 34720 25056 35168
3347 31168 33920 34720 25056 35168
3348 31104 34432 34720 25056 35168
3349 31232 34048 34720 25056 35168
3350 31296 33984 34752 25040 35184
3351 31104 34048 34752 25040 35184
3352 31552 34368 34752 25040 35184
3353 31744 33984 34752 25040 35184
3354 32448 34176 34752 25040 35184
3355 31872 34048 34752 25040 35184
3356 31360 34112 34752 25040 35184
3357 30912 33856 34752 25040 35184
3358 31744 33984 34752 25040 35184
3359 31744 34240 34752 25040 35184
3360 31168 34048 34720 25024 35168
3361 30144 33984 34720 25024 35168
3362 30912 34496 34720 25024 35168
3363 30592 34496 34720 25024 35168
