0 19712 17536 32544 29168 30832
1 20032 17600 32544 29168 30832
2 20288 17792 32544 29168 30832
3 20608 17856 32544 29168 30832
4 20800 17856 32544 29168 30832
5 20864 17792 32544 29168 30832
6 20736 17856 32544 29168 30832
7 21184 18496 32544 29168 30832
8 21056 17984 32544 29168 30832
9 21248 18048 32544 29168 30832
10 21440 18112 32448 27360 29872
11 22400 18496 32448 27360 29872
12 22144 18368 32448 27360 29872
13 22144 18496 32448 27360 29872
14 22848 18112 32448 27360 29872
15 23744 18752 32448 27360 29872
16 24192 19072 32448 27360 29872
17 24960 19776 32448 27360 29872
18 24832 19200 32448 27360 29872
19 25600 19328 32448 27360 29872
20 25536 19520 32448 27360 29872
21 25792 19328 32448 27360 29872
22 25408 19392 32448 27360 29872
23 25344 19840 32448 27360 29872
24 25664 19840 32448 27360 29872
25 25152 20096 32448 27360 29872
26 24704 20096 32448 27360 29872
27 24448 20224 32448 27360 29872
28 23552 20352 32448 27360 29872
29 23360 20416 32448 27360 29872
30 23424 21184 32320 25472 28864
31 22336 20800 32320 25472 28864
32 21952 20800 32320 25472 28864
33 22720 21632 32320 25472 28864
34 22528 22464 32320 25472 28864
35 21952 22784 32320 25472 28864
36 22080 23296 32320 25472 28864
37 22016 23360 32320 25472 28864
38 22656 23296 32320 25472 28864
39 23296 23808 32320 25472 28864
40 23104 23808 32304 25488 28864
41 22912 23680 32304 25488 28864
42 23104 23552 32304 25488 28864
43 23680 23680 32304 25488 28864
44 23104 23680 32304 25488 28864
45 23232 23488 32304 25488 28864
46 23744 23552 32304 25488 28864
47 24064 23808 32304 25488 28864
48 23744 23872 32304 25488 28864
49 23552 23488 32304 25488 28864
50 23488 24064 32352 25520 28832
51 23104 23808 32352 25520 28832
52 23424 24128 32352 25520 28832
53 23680 24192 32352 25520 28832
54 23168 24256 32352 25520 28832
55 23296 24000 32352 25520 28832
56 23360 24128 32352 25520 28832
57 23360 24448 32352 25520 28832
58 23488 24128 32352 25520 28832
59 23296 24512 32352 25520 28832
60 23232 24512 32352 25520 28832
61 23552 24704 32352 25520 28832
62 23232 24384 32352 25520 28832
63 23296 25088 32352 25520 28832
64 23104 24448 32352 25520 28832
65 23296 24448 32352 25520 28832
66 24320 24320 32352 25520 28832
67 24384 24064 32352 25520 28832
68 25088 24320 32352 25520 28832
69 25408 24960 32352 25520 28832
70 24768 24704 32320 25536 28832
71 25088 24256 32320 25536 28832
72 24832 24832 32320 25536 28832
73 24384 24704 32320 25536 28832
74 25088 24768 32320 25536 28832
75 23936 24832 32320 25536 28832
76 23744 24832 32320 25536 28832
77 23488 24512 32320 25536 28832
78 22976 24192 32320 25536 28832
79 24192 24576 32320 25536 28832
80 23488 24832 32352 25568 28880
81 23936 24896 32352 25568 28880
82 25152 24960 32352 25568 28880
83 31680 24256 32352 25568 28880
84 39808 24704 32352 25568 28880
85 37120 25280 32352 25568 28880
86 22400 25600 32352 25568 28880
87 14784 25536 32352 25568 28880
88 15296 24704 32352 25568 28880
89 17408 24384 32352 25568 28880
90 20864 24960 32320 25584 28960
91 23296 24576 32320 25584 28960
92 25152 25408 32320 25584 28960
93 25024 25088 32320 25584 28960
94 24704 24576 32320 25584 28960
95 25216 24832 32320 25584 28960
96 25280 25024 32320 25584 28960
97 25984 25408 32320 25584 28960
98 25920 25024 32320 25584 28960
99 26304 25088 32320 25584 28960
100 26368 24768 32320 25504 28896
101 26560 25344 32320 25504 28896
102 26368 25344 32320 25504 28896
103 26560 25024 32320 25504 28896
104 26688 25216 32320 25504 28896
105 27072 25408 32320 25504 28896
106 27456 25216 32320 25504 28896
107 28032 25728 32320 25504 28896
108 27776 25792 32320 25504 28896
109 28224 25344 32320 25504 28896
110 28800 25216 32352 25536 28864
111 29504 25792 32352 25536 28864
112 29696 25984 32352 25536 28864
113 30016 26048 32352 25536 28864
114 30016 25792 32352 25536 28864
115 29952 25792 32352 25536 28864
116 30144 25984 32352 25536 28864
117 29568 25664 32352 25536 28864
118 29568 25984 32352 25536 28864
119 29312 26112 32352 25536 28864
120 28800 26048 32368 25568 28832
121 27392 26176 32368 25568 28832
122 26496 25600 32368 25568 28832
123 26624 26048 32368 25568 28832
124 25728 25984 32368 25568 28832
125 25856 25920 32368 25568 28832
126 25984 25920 32368 25568 28832
127 25536 26112 32368 25568 28832
128 25536 25920 32368 25568 28832
129 24960 26112 32368 25568 28832
130 25152 25984 32368 25568 28832
131 25664 26048 32368 25568 28832
132 25536 26304 32368 25568 28832
133 25344 25920 32368 25568 28832
134 25792 26560 32368 25568 28832
135 25472 25984 32368 25568 28832
136 25664 25984 32368 25568 28832
137 25216 25984 32368 25568 28832
138 26304 26496 32368 25568 28832
139 25280 25792 32368 25568 28832
140 24960 26112 32288 25568 28864
141 25344 26368 32288 25568 28864
142 26048 26688 32288 25568 28864
143 25728 26560 32288 25568 28864
144 25920 26752 32288 25568 28864
145 25472 26176 32288 25568 28864
146 24960 26432 32288 25568 28864
147 25408 26688 32288 25568 28864
148 25792 26624 32288 25568 28864
149 25344 26432 32288 25568 28864
150 25152 27072 32320 25600 28928
151 25344 26496 32320 25600 28928
152 25408 25984 32320 25600 28928
153 24576 25984 32320 25600 28928
154 25088 25792 32320 25600 28928
155 25728 26752 32320 25600 28928
156 25856 26624 32320 25600 28928
157 25536 26368 32320 25600 28928
158 25984 26752 32320 25600 28928
159 25664 26368 32320 25600 28928
160 26880 26368 32272 25584 28912
161 26880 26304 32272 25584 28912
162 26880 25920 32272 25584 28912
163 26496 26432 32272 25584 28912
164 26304 26048 32272 25584 28912
165 26944 26112 32272 25584 28912
166 26112 25856 32272 25584 28912
167 26432 26048 32272 25584 28912
168 25792 26560 32272 25584 28912
169 25216 26240 32272 25584 28912
170 25216 26496 32272 25584 28912
171 25408 26624 32272 25584 28912
172 25216 26560 32272 25584 28912
173 25280 26496 32272 25584 28912
174 25408 26752 32272 25584 28912
175 25088 26944 32272 25584 28912
176 28928 26560 32272 25584 28912
177 36864 26496 32272 25584 28912
178 42944 26560 32272 25584 28912
179 32448 27392 32272 25584 28912
180 18944 27008 32480 25568 28800
181 15232 26432 32480 25568 28800
182 19392 26304 32480 25568 28800
183 21504 26176 32480 25568 28800
184 23808 26048 32480 25568 28800
185 26048 25600 32480 25568 28800
186 26944 26176 32480 25568 28800
187 27072 26368 32480 25568 28800
188 26944 26240 32480 25568 28800
189 27392 26496 32480 25568 28800
190 27328 26304 32464 25520 28832
191 27584 26112 32464 25520 28832
192 27904 26304 32464 25520 28832
193 27904 26624 32464 25520 28832
194 27712 26368 32464 25520 28832
195 27840 26624 32464 25520 28832
196 27968 26176 32464 25520 28832
197 27392 25920 32464 25520 28832
198 28800 26688 32464 25520 28832
199 28864 26496 32464 25520 28832
200 28480 26304 32400 25584 28912
201 29504 26240 32400 25584 28912
202 29440 26048 32400 25584 28912
203 30016 25664 32400 25584 28912
204 30272 26240 32400 25584 28912
205 31168 25664 32400 25584 28912
206 30912 26240 32400 25584 28912
207 31104 26368 32400 25584 28912
208 31552 26560 32400 25584 28912
209 31040 26048 32400 25584 28912
210 31296 26624 32480 25568 28928
211 30400 25984 32480 25568 28928
212 29824 25728 32480 25568 28928
213 30080 26112 32480 25568 28928
214 29504 26432 32480 25568 28928
215 29248 26048 32480 25568 28928
216 28160 26112 32480 25568 28928
217 27328 25792 32480 25568 28928
218 27456 26560 32480 25568 28928
219 27520 26304 32480 25568 28928
220 27136 26240 32480 25568 28928
221 26944 26048 32480 25568 28928
222 27264 26048 32480 25568 28928
223 27392 26048 32480 25568 28928
224 27392 25600 32480 25568 28928
225 27392 25984 32480 25568 28928
226 27584 25792 32480 25568 28928
227 27840 26240 32480 25568 28928
228 27904 26688 32480 25568 28928
229 27584 26368 32480 25568 28928
230 27712 26304 32384 25552 28912
231 27840 26816 32384 25552 28912
232 27584 26496 32384 25552 28912
233 27392 28544 32384 25552 28912
234 27520 29888 32384 25552 28912
235 27712 31936 32384 25552 28912
236 27392 33344 32384 25552 28912
237 27328 34368 32384 25552 28912
238 27136 34752 32384 25552 28912
239 27264 34944 32384 25552 28912
240 26880 34112 32384 25536 28896
241 27328 33728 32384 25536 28896
242 27392 33152 32384 25536 28896
243 27136 32320 32384 25536 28896
244 27008 31296 32384 25536 28896
245 26944 30848 32384 25536 28896
246 26944 30848 32384 25536 28896
247 27264 30528 32384 25536 28896
248 26816 29696 32384 25536 28896
249 27328 30272 32384 25536 28896
250 27328 29696 32320 25536 28928
251 27968 29248 32320 25536 28928
252 28800 28992 32320 25536 28928
253 28160 28480 32320 25536 28928
254 28672 28608 32320 25536 28928
255 27840 28352 32320 25536 28928
256 28544 28096 32320 25536 28928
257 28032 28160 32320 25536 28928
258 28160 27840 32320 25536 28928
259 27136 27520 32320 25536 28928
260 26496 27200 32256 25520 28896
261 26560 26944 32256 25520 28896
262 27072 27008 32256 25520 28896
263 26688 26816 32256 25520 28896
264 26368 26816 32256 25520 28896
265 26880 26880 32256 25520 28896
266 27328 26560 32256 25520 28896
267 34112 26752 32256 25520 28896
268 41472 26624 32256 25520 28896
269 43072 26880 32256 25520 28896
270 30848 27136 32336 25536 28928
271 21952 27136 32336 25536 28928
272 22080 26496 32336 25536 28928
273 24384 26240 32336 25536 28928
274 24640 26496 32336 25536 28928
275 26368 26176 32336 25536 28928
276 28032 26560 32336 25536 28928
277 27968 26240 32336 25536 28928
278 27392 25664 32336 25536 28928
279 28480 26048 32336 25536 28928
280 27904 25728 32336 25536 28928
281 27840 25600 32336 25536 28928
282 28608 25920 32336 25536 28928
283 28096 26048 32336 25536 28928
284 28288 25792 32336 25536 28928
285 28928 26176 32336 25536 28928
286 28864 26176 32336 25536 28928
287 28608 26048 32336 25536 28928
288 28288 25856 32336 25536 28928
289 29376 26112 32336 25536 28928
290 29440 25792 32416 25600 28928
291 28864 25792 32416 25600 28928
292 29248 26048 32416 25600 28928
293 30080 26112 32416 25600 28928
294 29824 26112 32416 25600 28928
295 30016 25664 32416 25600 28928
296 30336 25920 32416 25600 28928
297 31296 25856 32416 25600 28928
298 31040 25728 32416 25600 28928
299 31488 26176 32416 25600 28928
300 31040 26176 32368 25568 28928
301 31296 26496 32368 25568 28928
302 30976 26048 32368 25568 28928
303 30912 26240 32368 25568 28928
304 30464 26240 32368 25568 28928
305 29888 26496 32368 25568 28928
306 29376 26048 32368 25568 28928
307 29312 26560 32368 25568 28928
308 28352 26048 32368 25568 28928
309 27968 26176 32368 25568 28928
310 27648 26048 32352 25616 28928
311 27584 26176 32352 25616 28928
312 27200 25920 32352 25616 28928
313 27136 25920 32352 25616 28928
314 27392 26112 32352 25616 28928
315 28032 26304 32352 25616 28928
316 27584 26048 32352 25616 28928
317 27904 26304 32352 25616 28928
318 27968 26368 32352 25616 28928
319 27392 25792 32352 25616 28928
320 27776 26240 32352 25616 28928
321 27456 25792 32352 25616 28928
322 27776 25984 32352 25616 28928
323 27776 26368 32352 25616 28928
324 27712 26368 32352 25616 28928
325 27520 26048 32352 25616 28928
326 27584 26432 32352 25616 28928
327 27008 26112 32352 25616 28928
328 27072 25984 32352 25616 28928
329 26816 26304 32352 25616 28928
330 26880 26112 32352 25472 28832
331 26752 26432 32352 25472 28832
332 26624 26944 32352 25472 28832
333 26496 26816 32352 25472 28832
334 26496 27072 32352 25472 28832
335 26880 27264 32352 25472 28832
336 26560 26816 32352 25472 28832
337 27264 26944 32352 25472 28832
338 27456 27008 32352 25472 28832
339 27904 27008 32352 25472 28832
340 27648 27200 32384 25520 28880
341 27520 26752 32384 25520 28880
342 27840 26752 32384 25520 28880
343 27264 26560 32384 25520 28880
344 26624 26496 32384 25520 28880
345 27008 26624 32384 25520 28880
346 27328 26880 32384 25520 28880
347 26688 26688 32384 25520 28880
348 27072 26624 32384 25520 28880
349 26560 26560 32384 25520 28880
350 26432 26560 32368 25568 28944
351 26240 26112 32368 25568 28944
352 26048 26624 32368 25568 28944
353 28544 26496 32368 25568 28944
354 36928 26560 32368 25568 28944
355 43264 26112 32368 25568 28944
356 36992 26944 32368 25568 28944
357 24384 27456 32368 25568 28944
358 18752 26496 32368 25568 28944
359 21632 26432 32368 25568 28944
360 22528 26752 32352 25568 28896
361 23872 26432 32352 25568 28896
362 26240 26816 32352 25568 28896
363 26560 26368 32352 25568 28896
364 27136 26752 32352 25568 28896
365 27200 27008 32352 25568 28896
366 26944 26880 32352 25568 28896
367 27520 26944 32352 25568 28896
368 27328 26880 32352 25568 28896
369 27008 26752 32352 25568 28896
370 27072 26752 32336 25568 28848
371 27584 26688 32336 25568 28848
372 27648 26368 32336 25568 28848
373 27776 26112 32336 25568 28848
374 27584 25728 32336 25568 28848
375 27328 25728 32336 25568 28848
376 27584 25728 32336 25568 28848
377 27968 25728 32336 25568 28848
378 28224 25856 32336 25568 28848
379 28736 25856 32336 25568 28848
380 29056 26112 32336 25568 28848
381 29248 25728 32336 25568 28848
382 29248 25792 32336 25568 28848
383 30080 25600 32336 25568 28848
384 29504 25600 32336 25568 28848
385 30016 25472 32336 25568 28848
386 30144 25664 32336 25568 28848
387 29952 25408 32336 25568 28848
388 29312 25728 32336 25568 28848
389 29696 25600 32336 25568 28848
390 29376 25920 32416 25552 28864
391 28864 25728 32416 25552 28864
392 27904 25728 32416 25552 28864
393 27456 25920 32416 25552 28864
394 26176 25856 32416 25552 28864
395 26432 25792 32416 25552 28864
396 25984 25792 32416 25552 28864
397 26048 25664 32416 25552 28864
398 25664 25792 32416 25552 28864
399 25344 25792 32416 25552 28864
400 25344 25600 32480 25536 28896
401 26176 25664 32480 25536 28896
402 26176 25536 32480 25536 28896
403 26304 25536 32480 25536 28896
404 26176 25344 32480 25536 28896
405 26112 24960 32480 25536 28896
406 26752 25728 32480 25536 28896
407 26240 25344 32480 25536 28896
408 26368 25472 32480 25536 28896
409 26560 25600 32480 25536 28896
410 25600 25344 32416 25520 28896
411 26048 25664 32416 25520 28896
412 26368 25792 32416 25520 28896
413 25664 25856 32416 25520 28896
414 25984 25792 32416 25520 28896
415 25664 25536 32416 25520 28896
416 25920 25344 32416 25520 28896
417 25664 25856 32416 25520 28896
418 25920 25920 32416 25520 28896
419 25216 26048 32416 25520 28896
420 25344 25600 32416 25520 28896
421 25664 25856 32416 25520 28896
422 25600 25984 32416 25520 28896
423 25216 25856 32416 25520 28896
424 25600 25728 32416 25520 28896
425 25472 26176 32416 25520 28896
426 25088 25728 32416 25520 28896
427 25728 25600 32416 25520 28896
428 26880 26176 32416 25520 28896
429 26560 26304 32416 25520 28896
430 26432 26304 32400 25552 28912
431 26240 26304 32400 25552 28912
432 27072 26432 32400 25552 28912
433 25792 26432 32400 25552 28912
434 26240 26432 32400 25552 28912
435 25664 25984 32400 25552 28912
436 25408 26112 32400 25552 28912
437 25088 26304 32400 25552 28912
438 25344 26432 32400 25552 28912
439 24832 26496 32400 25552 28912
440 24896 26304 32352 25504 29088
441 25024 26304 32352 25504 29088
442 25472 26240 32352 25504 29088
443 29440 26048 32352 25504 29088
444 37504 25792 32352 25504 29088
445 42688 26240 32352 25504 29088
446 31232 26880 32352 25504 29088
447 18560 26752 32352 25504 29088
448 17152 26496 32352 25504 29088
449 19392 26176 32352 25504 29088
450 22016 26560 32320 25552 28992
451 23552 25920 32320 25552 28992
452 25664 25920 32320 25552 28992
453 26112 25920 32320 25552 28992
454 26816 26624 32320 25552 28992
455 26560 26624 32320 25552 28992
456 26880 26560 32320 25552 28992
457 26304 26432 32320 25552 28992
458 26816 26432 32320 25552 28992
459 27136 26368 32320 25552 28992
460 26944 26240 32336 25552 28944
461 27328 26560 32336 25552 28944
462 27968 26624 32336 25552 28944
463 27520 26240 32336 25552 28944
464 27840 26240 32336 25552 28944
465 27776 26176 32336 25552 28944
466 28224 26240 32336 25552 28944
467 27968 25856 32336 25552 28944
468 28480 26240 32336 25552 28944
469 28416 26368 32336 25552 28944
470 29248 26112 32416 25568 28832
471 29632 25920 32416 25568 28832
472 29696 25728 32416 25568 28832
473 30656 26688 32416 25568 28832
474 30656 26368 32416 25568 28832
475 30464 26432 32416 25568 28832
476 30592 26368 32416 25568 28832
477 30720 26240 32416 25568 28832
478 30784 26688 32416 25568 28832
479 29632 26496 32416 25568 28832
480 28992 26304 32416 25568 28832
481 28480 26368 32416 25568 28832
482 27520 26112 32416 25568 28832
483 27136 26176 32416 25568 28832
484 26560 25984 32416 25568 28832
485 26304 26176 32416 25568 28832
486 26432 26240 32416 25568 28832
487 25664 26176 32416 25568 28832
488 26048 26752 32416 25568 28832
489 25600 26112 32416 25568 28832
490 25728 26112 32400 25520 28880
491 25920 26368 32400 25520 28880
492 26176 26240 32400 25520 28880
493 26112 25984 32400 25520 28880
494 25792 26432 32400 25520 28880
495 26560 26176 32400 25520 28880
496 26240 26112 32400 25520 28880
497 25920 26048 32400 25520 28880
498 26624 26560 32400 25520 28880
499 26176 26496 32400 25520 28880
500 26240 26752 32384 25568 28896
501 25408 26560 32384 25568 28896
502 26048 26368 32384 25568 28896
503 25728 26176 32384 25568 28896
504 25408 25920 32384 25568 28896
505 25344 25472 32384 25568 28896
506 25792 26240 32384 25568 28896
507 25536 26304 32384 25568 28896
508 25280 25728 32384 25568 28896
509 25152 25536 32384 25568 28896
510 25152 25408 32320 25536 28832
511 25472 25792 32320 25536 28832
512 25088 25408 32320 25536 28832
513 25216 25088 32320 25536 28832
514 25408 25280 32320 25536 28832
515 25408 25472 32320 25536 28832
516 25344 24896 32320 25536 28832
517 26560 25344 32320 25536 28832
518 27136 25344 32320 25536 28832
519 26496 25536 32320 25536 28832
520 26496 25664 32320 25568 28864
521 26304 25792 32320 25568 28864
522 27264 25216 32320 25568 28864
523 25920 25152 32320 25568 28864
524 25728 25024 32320 25568 28864
525 24896 25472 32320 25568 28864
526 24960 25472 32320 25568 28864
527 24768 25600 32320 25568 28864
528 24832 25472 32320 25568 28864
529 24064 24704 32320 25568 28864
530 24256 24512 32400 25568 28896
531 24704 25088 32400 25568 28896
532 24960 25024 32400 25568 28896
533 30144 24768 32400 25568 28896
534 38080 24448 32400 25568 28896
535 42944 24896 32400 25568 28896
536 29568 24512 32400 25568 28896
537 17600 25088 32400 25568 28896
538 15488 24576 32400 25568 28896
539 18688 24448 32400 25568 28896
540 20736 24128 32400 25568 28896
541 22528 23552 32400 25568 28896
542 25152 23232 32400 25568 28896
543 25856 23616 32400 25568 28896
544 25856 23616 32400 25568 28896
545 26496 23744 32400 25568 28896
546 26496 23552 32400 25568 28896
547 26048 23296 32400 25568 28896
548 25920 22912 32400 25568 28896
549 26368 22848 32400 25568 28896
550 26112 22784 32352 25536 28928
551 26112 22400 32352 25536 28928
552 26176 22656 32352 25536 28928
553 26112 22208 32352 25536 28928
554 26560 22528 32352 25536 28928
555 26688 22656 32352 25536 28928
556 26944 22528 32352 25536 28928
557 27520 22528 32352 25536 28928
558 27456 22080 32352 25536 28928
559 27712 21952 32352 25536 28928
560 27712 22208 32336 25536 28864
561 27968 21632 32336 25536 28864
562 28416 21696 32336 25536 28864
563 28544 21888 32336 25536 28864
564 28672 21440 32336 25536 28864
565 28480 20992 32336 25536 28864
566 28672 20928 32336 25536 28864
567 28032 21184 32336 25536 28864
568 28096 21120 32336 25536 28864
569 27968 20736 32336 25536 28864
570 26944 20736 32336 25536 28928
571 26048 20608 32336 25536 28928
572 25664 20416 32336 25536 28928
573 25024 20160 32336 25536 28928
574 24000 20224 32336 25536 28928
575 23488 19584 32336 25536 28928
576 22912 19776 32336 25536 28928
577 22848 19648 32336 25536 28928
578 22528 19520 32336 25536 28928
579 22656 19072 32336 25536 28928
580 22592 19008 32336 25536 28928
581 23296 18816 32336 25536 28928
582 23616 18816 32336 25536 28928
583 23104 18624 32336 25536 28928
584 23168 18432 32336 25536 28928
585 22784 18560 32336 25536 28928
586 22464 18368 32336 25536 28928
587 23360 18624 32336 25536 28928
588 22784 18176 32336 25536 28928
589 22784 18240 32336 25536 28928
590 22528 17792 32352 25568 28864
591 22912 18304 32352 25568 28864
592 22656 17664 32352 25568 28864
593 22400 17664 32352 25568 28864
594 22400 17600 32352 25568 28864
595 21504 17408 32352 25568 28864
596 21760 16832 32352 25568 28864
597 22336 17408 32352 25568 28864
598 21760 16576 32352 25568 28864
599 21248 16000 32352 25568 28864
600 21440 16576 32368 25488 28880
601 22208 16512 32368 25488 28880
602 22336 16640 32368 25488 28880
603 21760 16192 32368 25488 28880
604 21504 16128 32368 25488 28880
605 22016 16384 32368 25488 28880
606 21056 16000 32368 25488 28880
607 21888 16064 32368 25488 28880
608 22208 15424 32368 25488 28880
609 22528 15232 32368 25488 28880
610 23360 15232 32368 25536 28896
611 22528 15168 32368 25536 28896
612 21888 15232 32368 25536 28896
613 22656 15360 32368 25536 28896
614 22592 15552 32368 25536 28896
615 22272 15296 32368 25536 28896
616 22144 15168 32368 25536 28896
617 21056 15232 32368 25536 28896
618 20864 14976 32368 25536 28896
619 20800 15040 32368 25536 28896
620 20800 15040 32352 25568 28896
621 20800 14912 32352 25568 28896
622 20608 15168 32352 25568 28896
623 20736 14912 32352 25568 28896
624 21824 14848 32352 25568 28896
625 28736 14720 32352 25568 28896
626 36224 15104 32352 25568 28896
627 36288 15552 32352 25568 28896
628 20928 15616 32352 25568 28896
629 12672 15296 32352 25568 28896
630 13312 15424 32480 25600 28864
631 15488 15424 32480 25600 28864
632 18112 15104 32480 25600 28864
633 20352 15360 32480 25600 28864
634 22208 15232 32480 25600 28864
635 22016 15232 32480 25600 28864
636 22208 14976 32480 25600 28864
637 22848 15104 32480 25600 28864
638 22464 14656 32480 25600 28864
639 23360 14976 32480 25600 28864
640 23104 14592 32480 25600 28864
641 24000 15232 32480 25600 28864
642 24064 15104 32480 25600 28864
643 24256 14976 32480 25600 28864
644 24192 15232 32480 25600 28864
645 24448 15424 32480 25600 28864
646 24192 15232 32480 25600 28864
647 23936 15040 32480 25600 28864
648 24448 15360 32480 25600 28864
649 24512 14912 32480 25600 28864
650 25024 15360 32416 25584 28864
651 25472 15040 32416 25584 28864
652 25536 14592 32416 25584 28864
653 26240 14976 32416 25584 28864
654 26688 15488 32416 25584 28864
655 26752 15360 32416 25584 28864
656 26944 14784 32416 25584 28864
657 26048 14464 32416 25584 28864
658 25664 14592 32416 25584 28864
659 26432 15360 32416 25584 28864
660 25792 15232 32416 25536 28832
661 25408 14976 32416 25536 28832
662 24832 15296 32416 25536 28832
663 24576 15616 32416 25536 28832
664 24256 15552 32416 25536 28832
665 23168 15744 32416 25536 28832
666 22976 15680 32416 25536 28832
667 22912 15552 32416 25536 28832
668 22464 16064 32416 25536 28832
669 22592 15680 32416 25536 28832
670 22080 15424 32416 25584 28864
671 22656 15744 32416 25584 28864
672 22400 15488 32416 25584 28864
673 22976 16064 32416 25584 28864
674 22720 15808 32416 25584 28864
675 22784 16064 32416 25584 28864
676 23104 15808 32416 25584 28864
677 22720 15872 32416 25584 28864
678 22976 16128 32416 25584 28864
679 23488 16256 32416 25584 28864
680 23616 16576 32416 25584 28864
681 23424 16448 32416 25584 28864
682 22912 16448 32416 25584 28864
683 22848 16384 32416 25584 28864
684 23360 16832 32416 25584 28864
685 23424 16896 32416 25584 28864
686 23872 16960 32416 25584 28864
687 23360 16960 32416 25584 28864
688 23168 16960 32416 25584 28864
689 23040 16640 32416 25584 28864
690 22848 16640 32432 25584 28896
691 23552 16896 32432 25584 28896
692 23232 17152 32432 25584 28896
693 23616 16704 32432 25584 28896
694 24320 17152 32432 25584 28896
695 24896 17280 32432 25584 28896
696 24832 17536 32432 25584 28896
697 24320 17408 32432 25584 28896
698 23616 17472 32432 25584 28896
699 24640 17728 32432 25584 28896
700 24000 17856 32352 25600 28928
701 24064 17920 32352 25600 28928
702 23296 17472 32352 25600 28928
703 22912 17344 32352 25600 28928
704 23232 17472 32352 25600 28928
705 22144 17152 32352 25600 28928
706 22592 17664 32352 25600 28928
707 23552 17984 32352 25600 28928
708 23168 17728 32352 25600 28928
709 22976 17536 32352 25600 28928
710 25920 17600 32368 25520 28928
711 33600 17152 32368 25520 28928
712 40320 17472 32368 25520 28928
713 35008 18112 32368 25520 28928
714 23552 17984 32368 25520 28928
715 18560 17920 32368 25520 28928
716 21248 17600 32368 25520 28928
717 21440 17792 32368 25520 28928
718 21696 17408 32368 25520 28928
719 23104 17344 32368 25520 28928
720 23616 17344 32416 25520 28928
721 23744 17408 32416 25520 28928
722 24192 17536 32416 25520 28928
723 23616 17728 32416 25520 28928
724 23936 17536 32416 25520 28928
725 24128 17600 32416 25520 28928
726 23808 17280 32416 25520 28928
727 23808 17280 32416 25520 28928
728 24128 17152 32416 25520 28928
729 23872 16576 32416 25520 28928
730 23936 16256 32416 25504 28992
731 24320 16000 32416 25504 28992
732 24064 15808 32416 25504 28992
733 24768 15616 32416 25504 28992
734 23808 15168 32416 25504 28992
735 24320 14784 32416 25504 28992
736 24448 14720 32416 25504 28992
737 25024 14976 32416 25504 28992
738 25344 14912 32416 25504 28992
739 24896 14784 32416 25504 28992
740 25408 14784 32368 25568 28960
741 25728 14336 32368 25568 28960
742 25856 14272 32368 25568 28960
743 25792 14016 32368 25568 28960
744 25728 14144 32368 25568 28960
745 25472 14144 32368 25568 28960
746 25344 14016 32368 25568 28960
747 24512 13696 32368 25568 28960
748 24192 14080 32368 25568 28960
749 23488 14016 32368 25568 28960
750 22848 13952 32368 25568 28960
751 22016 13632 32368 25568 28960
752 21632 14336 32368 25568 28960
753 21376 14144 32368 25568 28960
754 20928 14144 32368 25568 28960
755 20416 13568 32368 25568 28960
756 20544 13888 32368 25568 28960
757 20480 13632 32368 25568 28960
758 20864 14016 32368 25568 28960
759 20160 13696 32368 25568 28960
760 20224 13760 32384 25552 28912
761 20096 13632 32384 25552 28912
762 19904 13376 32384 25552 28912
763 19904 13504 32384 25552 28912
764 20224 13824 32384 25552 28912
765 19712 13504 32384 25552 28912
766 19776 13824 32384 25552 28912
767 19008 13568 32384 25552 28912
768 19200 13248 32384 25552 28912
769 19200 13568 32384 25552 28912
770 19072 13120 32512 25536 29024
771 18816 13120 32512 25536 29024
772 18496 13312 32512 25536 29024
773 18688 13056 32512 25536 29024
774 18368 13056 32512 25536 29024
775 18240 13504 32512 25536 29024
776 17600 12992 32512 25536 29024
777 17600 12992 32512 25536 29024
778 17536 12800 32512 25536 29024
779 17792 12992 32512 25536 29024
780 17792 12992 32432 25552 28944
781 18048 13184 32432 25552 28944
782 19200 13056 32432 25552 28944
783 18112 13056 32432 25552 28944
784 17024 13056 32432 25552 28944
785 16960 12800 32432 25552 28944
786 17536 13440 32432 25552 28944
787 16384 12992 32432 25552 28944
788 17280 12928 32432 25552 28944
789 16448 13056 32432 25552 28944
790 15936 12800 32432 25552 28944
791 15552 13120 32432 25552 28944
792 15872 13440 32432 25552 28944
793 15360 13248 32432 25552 28944
794 15040 13184 32432 25552 28944
795 15296 13312 32432 25552 28944
796 15616 13632 32432 25552 28944
797 20800 13760 32432 25552 28944
798 28032 13440 32432 25552 28944
799 32512 13632 32432 25552 28944
800 22080 14208 32448 25616 28960
801 10944 14400 32448 25616 28960
802  8704 14144 32448 25616 28960
803 12224 14848 32448 25616 28960
804 11968 13824 32448 25616 28960
805 13632 14464 32448 25616 28960
806 15552 14592 32448 25616 28960
807 16064 15360 32448 25616 28960
808 16256 16000 32448 25616 28960
809 16384 16576 32448 25616 28960
810 16384 16768 32416 25504 28864
811 16512 16576 32416 25504 28864
812 16384 16448 32416 25504 28864
813 16896 16384 32416 25504 28864
814 16704 16448 32416 25504 28864
815 17088 16320 32416 25504 28864
816 17152 16512 32416 25504 28864
817 16896 16384 32416 25504 28864
818 17344 16640 32416 25504 28864
819 17920 16768 32416 25504 28864
820 17728 16768 32416 25536 28912
821 17408 16896 32416 25536 28912
822 17920 16832 32416 25536 28912
823 18048 16704 32416 25536 28912
824 19520 17408 32416 25536 28912
825 18880 17216 32416 25536 28912
826 19776 17856 32416 25536 28912
827 20352 17984 32416 25536 28912
828 20160 18112 32416 25536 28912
829 20416 17728 32416 25536 28912
830 20032 18304 32384 25520 28912
831 20800 18624 32384 25520 28912
832 19776 18560 32384 25520 28912
833 19776 18368 32384 25520 28912
834 19264 18624 32384 25520 28912
835 18368 19264 32384 25520 28912
836 17856 19008 32384 25520 28912
837 17216 19648 32384 25520 28912
838 17024 19392 32384 25520 28912
839 16384 19200 32384 25520 28912
840 16576 19584 32384 25520 28912
841 16192 19776 32384 25520 28912
842 17088 20224 32384 25520 28912
843 16256 20096 32384 25520 28912
844 16512 20096 32384 25520 28912
845 16576 20608 32384 25520 28912
846 16832 20352 32384 25520 28912
847 16896 20608 32384 25520 28912
848 16960 20864 32384 25520 28912
849 17024 20800 32384 25520 28912
850 17024 20608 32352 25504 28896
851 17088 21184 32352 25504 28896
852 17216 21376 32352 25504 28896
853 17152 21440 32352 25504 28896
854 16576 21312 32352 25504 28896
855 17408 21824 32352 25504 28896
856 17216 22208 32352 25504 28896
857 17600 22400 32352 25504 28896
858 17408 22272 32352 25504 28896
859 16896 22656 32352 25504 28896
860 17472 22912 32352 25472 28896
861 17728 22976 32352 25472 28896
862 17408 22720 32352 25472 28896
863 17088 22592 32352 25472 28896
864 17024 22784 32352 25472 28896
865 17344 22912 32352 25472 28896
866 17728 23168 32352 25472 28896
867 17024 23232 32352 25472 28896
868 17024 23104 32352 25472 28896
869 17344 23488 32352 25472 28896
870 17984 23552 32400 25552 28832
871 18496 23616 32400 25552 28832
872 18880 23616 32400 25552 28832
873 19008 23808 32400 25552 28832
874 18368 23872 32400 25552 28832
875 18560 24192 32400 25552 28832
876 18688 24512 32400 25552 28832
877 18880 24960 32400 25552 28832
878 18176 24256 32400 25552 28832
879 17472 24256 32400 25552 28832
880 17664 24128 32480 25472 28896
881 17600 24192 32480 25472 28896
882 17216 23616 32480 25472 28896
883 17664 23872 32480 25472 28896
884 18304 24064 32480 25472 28896
885 18112 23552 32480 25472 28896
886 18496 23808 32480 25472 28896
887 20032 23744 32480 25472 28896
888 27264 23872 32480 25472 28896
889 34240 23488 32480 25472 28896
890 32384 23872 32464 25456 28944
891 17856 24512 32464 25456 28944
892 10688 24512 32464 25456 28944
893 11968 24576 32464 25456 28944
894 13760 24768 32464 25456 28944
895 15872 24448 32464 25456 28944
896 18688 24384 32464 25456 28944
897 19776 24448 32464 25456 28944
898 19904 24320 32464 25456 28944
899 20096 24384 32464 25456 28944
900 20352 24576 32464 25456 28944
901 20864 24832 32464 25456 28944
902 21248 25088 32464 25456 28944
903 21184 24768 32464 25456 28944
904 21504 25024 32464 25456 28944
905 21248 25152 32464 25456 28944
906 21504 25280 32464 25456 28944
907 21568 25152 32464 25456 28944
908 22464 25664 32464 25456 28944
909 22912 25856 32464 25456 28944
910 22784 25856 32464 25520 28960
911 22848 25600 32464 25520 28960
912 22912 25728 32464 25520 28960
913 23232 25216 32464 25520 28960
914 24128 25664 32464 25520 28960
915 24448 25472 32464 25520 28960
916 24960 25984 32464 25520 28960
917 25344 26048 32464 25520 28960
918 25792 25856 32464 25520 28960
919 25792 26048 32464 25520 28960
920 26176 26048 32384 25504 28864
921 25920 26048 32384 25504 28864
922 25664 26240 32384 25504 28864
923 25472 26432 32384 25504 28864
924 25216 26304 32384 25504 28864
925 24960 26432 32384 25504 28864
926 23744 26816 32384 25504 28864
927 23104 26624 32384 25504 28864
928 22912 26624 32384 25504 28864
929 22592 26496 32384 25504 28864
930 22208 27008 32352 25520 28880
931 22208 27072 32352 25520 28880
932 22080 27008 32352 25520 28880
933 21824 27392 32352 25520 28880
934 21824 27264 32352 25520 28880
935 22016 27264 32352 25520 28880
936 22336 27392 32352 25520 28880
937 22272 27584 32352 25520 28880
938 22272 27776 32352 25520 28880
939 23104 27840 32352 25520 28880
940 22464 27712 32352 25520 28880
941 22784 28224 32352 25520 28880
942 22848 28224 32352 25520 28880
943 22912 28032 32352 25520 28880
944 23488 28352 32352 25520 28880
945 23360 28416 32352 25520 28880
946 23168 28608 32352 25520 28880
947 22464 28800 32352 25520 28880
948 23296 28864 32352 25520 28880
949 23360 29248 32352 25520 28880
950 23360 28992 32368 25568 28880
951 23296 28864 32368 25568 28880
952 23104 28864 32368 25568 28880
953 22528 29056 32368 25568 28880
954 23104 29376 32368 25568 28880
955 23168 29888 32368 25568 28880
956 23040 29376 32368 25568 28880
957 22784 29120 32368 25568 28880
958 23232 29504 32368 25568 28880
959 22784 29120 32368 25568 28880
960 23104 29696 32416 25536 28960
961 22976 29440 32416 25536 28960
962 23616 29824 32416 25536 28960
963 23360 29440 32416 25536 28960
964 24768 29568 32416 25536 28960
965 25408 29952 32416 25536 28960
966 24384 29952 32416 25536 28960
967 23616 29632 32416 25536 28960
968 23808 29952 32416 25536 28960
969 24384 29952 32416 25536 28960
970 23808 30016 32400 25536 28912
971 24064 29888 32400 25536 28912
972 23936 30208 32400 25536 28912
973 23296 29696 32400 25536 28912
974 23296 29312 32400 25536 28912
975 22720 29312 32400 25536 28912
976 22976 29248 32400 25536 28912
977 23552 29440 32400 25536 28912
978 23808 29504 32400 25536 28912
979 24384 29504 32400 25536 28912
980 26560 29376 32416 25536 28928
981 34112 29248 32416 25536 28928
982 41280 29184 32416 25536 28928
983 33152 29504 32416 25536 28928
984 20096 29952 32416 25536 28928
985 14592 29632 32416 25536 28928
986 17472 29504 32416 25536 28928
987 19136 29440 32416 25536 28928
988 21376 29376 32416 25536 28928
989 24768 30080 32416 25536 28928
990 25792 29760 32320 25568 28896
991 25536 29632 32320 25568 28896
992 26432 29824 32320 25568 28896
993 26176 29632 32320 25568 28896
994 26432 29696 32320 25568 28896
995 26176 29376 32320 25568 28896
996 26624 29824 32320 25568 28896
997 26944 29888 32320 25568 28896
998 26880 29888 32320 25568 28896
999 26688 29632 32320 25568 28896
1000 27072 29824 32320 25568 28896
1001 26816 29568 32320 25568 28896
1002 27520 29696 32320 25568 28896
1003 27648 29888 32320 25568 28896
1004 27264 29568 32320 25568 28896
1005 28096 30336 32320 25568 28896
1006 29120 30144 32320 25568 28896
1007 28864 30272 32320 25568 28896
1008 29184 30080 32320 25568 28896
1009 30400 30208 32320 25568 28896
1010 30464 29888 32320 25552 28928
1011 30528 30336 32320 25552 28928
1012 31104 30208 32320 25552 28928
1013 30336 30272 32320 25552 28928
1014 30976 30080 32320 25552 28928
1015 30720 29952 32320 25552 28928
1016 30208 30080 32320 25552 28928
1017 29824 30016 32320 25552 28928
1018 28544 30080 32320 25552 28928
1019 28352 30144 32320 25552 28928
1020 27520 30272 32320 25552 28880
1021 27520 30784 32320 25552 28880
1022 27264 30720 32320 25552 28880
1023 26688 30464 32320 25552 28880
1024 26240 30656 32320 25552 28880
1025 26432 30784 32320 25552 28880
1026 25984 30464 32320 25552 28880
1027 25664 30464 32320 25552 28880
1028 26816 30528 32320 25552 28880
1029 26176 30464 32320 25552 28880
1030 26624 30784 32320 25536 28960
1031 26560 30528 32320 25536 28960
1032 26176 30272 32320 25536 28960
1033 26688 30400 32320 25536 28960
1034 26880 30080 32320 25536 28960
1035 27008 30336 32320 25536 28960
1036 27328 30272 32320 25536 28960
1037 26496 30464 32320 25536 28960
1038 26304 30400 32320 25536 28960
1039 26624 30848 32320 25536 28960
1040 26752 30976 32368 25536 28992
1041 26624 30464 32368 25536 28992
1042 26624 30528 32368 25536 28992
1043 27008 30656 32368 25536 28992
1044 25856 30336 32368 25536 28992
1045 25792 29824 32368 25536 28992
1046 26304 30400 32368 25536 28992
1047 26432 30400 32368 25536 28992
1048 26624 30272 32368 25536 28992
1049 25920 30016 32368 25536 28992
1050 26304 30144 32368 25536 28992
1051 26432 29824 32368 25536 28992
1052 26176 29568 32368 25536 28992
1053 26240 29504 32368 25536 28992
1054 26048 29568 32368 25536 28992
1055 26112 29248 32368 25536 28992
1056 26112 29760 32368 25536 28992
1057 27328 30144 32368 25536 28992
1058 26944 29440 32368 25536 28992
1059 28096 29824 32368 25536 28992
1060 27840 29760 32320 25520 28976
1061 27392 30016 32320 25520 28976
1062 26496 29632 32320 25520 28976
1063 27584 30016 32320 25520 28976
1064 26688 29888 32320 25520 28976
1065 26880 29888 32320 25520 28976
1066 26560 29824 32320 25520 28976
1067 26304 29696 32320 25520 28976
1068 26240 30016 32320 25520 28976
1069 26560 30080 32320 25520 28976
1070 26112 29824 32352 25568 28928
1071 26496 30272 32352 25568 28928
1072 26944 30592 32352 25568 28928
1073 26624 30464 32352 25568 28928
1074 29312 30144 32352 25568 28928
1075 36800 29952 32352 25568 28928
1076 43840 29952 32352 25568 28928
1077 37184 30080 32352 25568 28928
1078 23872 30592 32352 25568 28928
1079 18176 30400 32352 25568 28928
1080 20672 30144 32352 25600 28928
1081 22272 29888 32352 25600 28928
1082 24320 29760 32352 25600 28928
1083 26816 29696 32352 25600 28928
1084 28160 29696 32352 25600 28928
1085 28224 29440 32352 25600 28928
1086 28224 29440 32352 25600 28928
1087 28800 29440 32352 25600 28928
1088 28544 29312 32352 25600 28928
1089 30016 30208 32352 25600 28928
1090 29184 29952 32368 25584 28928
1091 29312 29568 32368 25584 28928
1092 29760 29440 32368 25584 28928
1093 30464 29760 32368 25584 28928
1094 30016 29696 32368 25584 28928
1095 30272 29056 32368 25584 28928
1096 30464 29568 32368 25584 28928
1097 30912 30336 32368 25584 28928
1098 30848 30656 32368 25584 28928
1099 30656 30720 32368 25584 28928
1100 31360 31040 32368 25584 28928
1101 31872 30656 32368 25584 28928
1102 31872 29952 32368 25584 28928
1103 32704 30080 32368 25584 28928
1104 33088 30208 32368 25584 28928
1105 33216 30400 32368 25584 28928
1106 33024 30080 32368 25584 28928
1107 32640 30080 32368 25584 28928
1108 33344 29632 32368 25584 28928
1109 33280 30016 32368 25584 28928
1110 33152 30144 32384 25472 28832
1111 32448 29952 32384 25472 28832
1112 31808 29952 32384 25472 28832
1113 30784 29312 32384 25472 28832
1114 30080 29312 32384 25472 28832
1115 29312 29376 32384 25472 28832
1116 29248 29376 32384 25472 28832
1117 28736 29248 32384 25472 28832
1118 28608 29632 32384 25472 28832
1119 28800 29632 32384 25472 28832
1120 28160 29824 32400 25552 28880
1121 28800 29568 32400 25552 28880
1122 28800 29440 32400 25552 28880
1123 29120 29504 32400 25552 28880
1124 28992 29248 32400 25552 28880
1125 28928 28992 32400 25552 28880
1126 29056 28864 32400 25552 28880
1127 29184 29312 32400 25552 28880
1128 29696 29504 32400 25552 28880
1129 29824 29504 32400 25552 28880
1130 28928 28672 32384 25520 28880
1131 29440 29888 32384 25520 28880
1132 29696 30208 32384 25520 28880
1133 29376 30080 32384 25520 28880
1134 29248 30208 32384 25520 28880
1135 28864 30016 32384 25520 28880
1136 29696 30208 32384 25520 28880
1137 28928 30080 32384 25520 28880
1138 29056 29824 32384 25520 28880
1139 28544 30016 32384 25520 28880
1140 28864 30016 32384 25536 28864
1141 28928 29888 32384 25536 28864
1142 29312 29824 32384 25536 28864
1143 29056 29824 32384 25536 28864
1144 29120 29568 32384 25536 28864
1145 29696 29760 32384 25536 28864
1146 29824 29376 32384 25536 28864
1147 30016 29376 32384 25536 28864
1148 30336 28992 32384 25536 28864
1149 30400 29440 32384 25536 28864
1150 29248 29504 32400 25552 28880
1151 30400 29568 32400 25552 28880
1152 29504 29632 32400 25552 28880
1153 29056 29184 32400 25552 28880
1154 29376 29632 32400 25552 28880
1155 29120 29824 32400 25552 28880
1156 28736 29760 32400 25552 28880
1157 28608 29440 32400 25552 28880
1158 29056 29376 32400 25552 28880
1159 29056 29760 32400 25552 28880
1160 28736 29376 32400 25552 28880
1161 28800 29248 32400 25552 28880
1162 29888 29120 32400 25552 28880
1163 36608 29504 32400 25552 28880
1164 43584 29504 32400 25552 28880
1165 44160 29760 32400 25552 28880
1166 32576 30016 32400 25552 28880
1167 24960 30016 32400 25552 28880
1168 24896 29632 32400 25552 28880
1169 26816 29632 32400 25552 28880
1170 27392 29184 32368 25584 28832
1171 28224 29568 32368 25584 28832
1172 29376 29248 32368 25584 28832
1173 29376 29184 32368 25584 28832
1174 29376 29120 32368 25584 28832
1175 29568 29056 32368 25584 28832
1176 29248 28992 32368 25584 28832
1177 29504 29120 32368 25584 28832
1178 29504 28800 32368 25584 28832
1179 29056 28608 32368 25584 28832
1180 29696 28800 32448 25600 28960
1181 29888 28416 32448 25600 28960
1182 29696 28672 32448 25600 28960
1183 30400 28992 32448 25600 28960
1184 29568 28736 32448 25600 28960
1185 30016 28736 32448 25600 28960
1186 29888 28608 32448 25600 28960
1187 30208 28672 32448 25600 28960
1188 30272 28608 32448 25600 28960
1189 30656 28352 32448 25600 28960
1190 31104 28672 32448 25600 28896
1191 31104 28160 32448 25600 28896
1192 31936 28480 32448 25600 28896
1193 31232 27520 32448 25600 28896
1194 31424 27840 32448 25600 28896
1195 31872 28288 32448 25600 28896
1196 31552 28288 32448 25600 28896
1197 32192 28288 32448 25600 28896
1198 32192 28416 32448 25600 28896
1199 31744 28288 32448 25600 28896
1200 31488 28608 32448 25600 28896
1201 30528 28288 32448 25600 28896
1202 29888 27904 32448 25600 28896
1203 29888 28416 32448 25600 28896
1204 29312 28544 32448 25600 28896
1205 28480 28352 32448 25600 28896
1206 27904 28416 32448 25600 28896
1207 27968 28160 32448 25600 28896
1208 28160 28288 32448 25600 28896
1209 28032 27968 32448 25600 28896
1210 27776 27840 32384 25568 28912
1211 28608 28352 32384 25568 28912
1212 28160 27968 32384 25568 28912
1213 29056 28224 32384 25568 28912
1214 28800 27968 32384 25568 28912
1215 28736 28352 32384 25568 28912
1216 28736 28224 32384 25568 28912
1217 28928 28672 32384 25568 28912
1218 28480 28352 32384 25568 28912
1219 28096 28032 32384 25568 28912
1220 28544 28352 32384 25504 29088
1221 28160 28032 32384 25504 29088
1222 28160 28544 32384 25504 29088
1223 28096 27904 32384 25504 29088
1224 28352 28480 32384 25504 29088
1225 28096 28352 32384 25504 29088
1226 27648 27840 32384 25504 29088
1227 27840 27968 32384 25504 29088
1228 27648 27200 32384 25504 29088
1229 27520 28032 32384 25504 29088
1230 27904 28992 32384 25568 28992
1231 27648 29184 32384 25568 28992
1232 27648 28672 32384 25568 28992
1233 28288 29184 32384 25568 28992
1234 28800 28672 32384 25568 28992
1235 27840 28672 32384 25568 28992
1236 27392 28800 32384 25568 28992
1237 27456 28736 32384 25568 28992
1238 28416 29184 32384 25568 28992
1239 27392 28800 32384 25568 28992
1240 27072 28672 32368 25584 28928
1241 26944 28672 32368 25584 28928
1242 26432 28544 32368 25584 28928
1243 26240 28544 32368 25584 28928
1244 26176 28352 32368 25584 28928
1245 25664 28096 32368 25584 28928
1246 26240 28160 32368 25584 28928
1247 25984 28160 32368 25584 28928
1248 27008 28608 32368 25584 28928
1249 30784 28352 32368 25584 28928
1250 38848 28480 32448 25536 28960
1251 44224 28864 32448 25536 28960
1252 34496 28800 32448 25536 28960
1253 22976 28672 32448 25536 28960
1254 19904 28672 32448 25536 28960
1255 23232 28160 32448 25536 28960
1256 23680 28160 32448 25536 28960
1257 24960 28032 32448 25536 28960
1258 26944 28288 32448 25536 28960
1259 27392 28096 32448 25536 28960
1260 27520 28224 32448 25536 28960
1261 27584 27712 32448 25536 28960
1262 27648 28096 32448 25536 28960
1263 27392 27968 32448 25536 28960
1264 27968 28224 32448 25536 28960
1265 27328 27392 32448 25536 28960
1266 27712 27648 32448 25536 28960
1267 28544 27712 32448 25536 28960
1268 28672 27328 32448 25536 28960
1269 27904 27072 32448 25536 28960
1270 28800 27584 32448 25552 28944
1271 28800 27328 32448 25552 28944
1272 28992 27328 32448 25552 28944
1273 28992 27264 32448 25552 28944
1274 29312 27072 32448 25552 28944
1275 29632 27136 32448 25552 28944
1276 29632 26944 32448 25552 28944
1277 29760 26944 32448 25552 28944
1278 30592 27136 32448 25552 28944
1279 31104 27136 32448 25552 28944
1280 31104 26880 32432 25520 28912
1281 30656 26688 32432 25520 28912
1282 31680 27392 32432 25520 28912
1283 31424 27456 32432 25520 28912
1284 30848 27264 32432 25520 28912
1285 31104 27648 32432 25520 28912
1286 29888 27328 32432 25520 28912
1287 29440 27072 32432 25520 28912
1288 29120 27520 32432 25520 28912
1289 28608 27648 32432 25520 28912
1290 27904 27648 32352 25568 28864
1291 27008 27328 32352 25568 28864
1292 27264 27520 32352 25568 28864
1293 26944 27520 32352 25568 28864
1294 26624 27712 32352 25568 28864
1295 26880 28096 32352 25568 28864
1296 26240 27904 32352 25568 28864
1297 26304 27712 32352 25568 28864
1298 26240 27968 32352 25568 28864
1299 26752 28992 32352 25568 28864
1300 27008 29312 32352 25520 28880
1301 26880 29824 32352 25520 28880
1302 26752 30912 32352 25520 28880
1303 26752 30720 32352 25520 28880
1304 26560 31744 32352 25520 28880
1305 26880 32000 32352 25520 28880
1306 27008 31936 32352 25520 28880
1307 26688 31744 32352 25520 28880
1308 26624 31232 32352 25520 28880
1309 26304 30272 32352 25520 28880
1310 26880 29760 32352 25520 28880
1311 27008 29376 32352 25520 28880
1312 27072 28800 32352 25520 28880
1313 26496 28352 32352 25520 28880
1314 26112 27328 32352 25520 28880
1315 27008 27648 32352 25520 28880
1316 26304 27136 32352 25520 28880
1317 26176 27072 32352 25520 28880
1318 26048 26944 32352 25520 28880
1319 26432 27008 32352 25520 28880
1320 26176 26752 32368 25488 28912
1321 26752 26496 32368 25488 28912
1322 27200 26624 32368 25488 28912
1323 28160 26496 32368 25488 28912
1324 28352 26368 32368 25488 28912
1325 27072 26368 32368 25488 28912
1326 26816 26496 32368 25488 28912
1327 27072 26432 32368 25488 28912
1328 26752 26496 32368 25488 28912
1329 26944 26496 32368 25488 28912
1330 26752 26432 32480 25504 28832
1331 26240 26624 32480 25504 28832
1332 25920 26240 32480 25504 28832
1333 25856 26176 32480 25504 28832
1334 25920 26048 32480 25504 28832
1335 25920 26304 32480 25504 28832
1336 26368 26368 32480 25504 28832
1337 26112 26368 32480 25504 28832
1338 27840 26368 32480 25504 28832
1339 35904 26560 32480 25504 28832
1340 43328 26688 32416 25520 28896
1341 34944 27328 32416 25520 28896
1342 21760 27456 32416 25520 28896
1343 17216 27456 32416 25520 28896
1344 19648 26944 32416 25520 28896
1345 21312 26752 32416 25520 28896
1346 23616 26816 32416 25520 28896
1347 26112 26944 32416 25520 28896
1348 27392 26944 32416 25520 28896
1349 27456 26816 32416 25520 28896
1350 27584 26752 32352 25536 28912
1351 27648 26880 32352 25536 28912
1352 27520 26880 32352 25536 28912
1353 27712 26816 32352 25536 28912
1354 28224 27008 32352 25536 28912
1355 28928 27584 32352 25536 28912
1356 28224 27328 32352 25536 28912
1357 28672 27200 32352 25536 28912
1358 28736 27392 32352 25536 28912
1359 29184 27392 32352 25536 28912
1360 29248 27584 32352 25536 28912
1361 29184 27456 32352 25536 28912
1362 29760 27328 32352 25536 28912
1363 29760 27008 32352 25536 28912
1364 29952 27328 32352 25536 28912
1365 31040 27264 32352 25536 28912
1366 31104 27136 32352 25536 28912
1367 31808 27072 32352 25536 28912
1368 32448 27328 32352 25536 28912
1369 32704 26816 32352 25536 28912
1370 32896 27712 32416 25536 28832
1371 33088 28352 32416 25536 28832
1372 32512 28864 32416 25536 28832
1373 32128 29248 32416 25536 28832
1374 32064 29504 32416 25536 28832
1375 30848 29120 32416 25536 28832
1376 30272 28672 32416 25536 28832
1377 29568 28544 32416 25536 28832
1378 29120 28992 32416 25536 28832
1379 28032 28544 32416 25536 28832
1380 27904 28608 32384 25504 28848
1381 27776 28800 32384 25504 28848
1382 27648 28608 32384 25504 28848
1383 27072 28224 32384 25504 28848
1384 27328 28096 32384 25504 28848
1385 27456 28288 32384 25504 28848
1386 26496 27712 32384 25504 28848
1387 27392 28032 32384 25504 28848
1388 26688 27904 32384 25504 28848
1389 27520 27840 32384 25504 28848
1390 27200 27712 32384 25536 28912
1391 27584 28160 32384 25536 28912
1392 27392 28032 32384 25536 28912
1393 27712 27712 32384 25536 28912
1394 27264 27840 32384 25536 28912
1395 27392 27840 32384 25536 28912
1396 27584 27776 32384 25536 28912
1397 27648 28032 32384 25536 28912
1398 26688 27584 32384 25536 28912
1399 27072 27776 32384 25536 28912
1400 27200 27776 32352 25536 28864
1401 27264 27968 32352 25536 28864
1402 26688 26816 32352 25536 28864
1403 27008 27712 32352 25536 28864
1404 27328 27264 32352 25536 28864
1405 27008 26560 32352 25536 28864
1406 26496 26432 32352 25536 28864
1407 27072 26880 32352 25536 28864
1408 26880 26816 32352 25536 28864
1409 27200 27136 32352 25536 28864
1410 27072 26880 32352 25536 28864
1411 27328 26816 32352 25536 28864
1412 27712 26944 32352 25536 28864
1413 28480 26752 32352 25536 28864
1414 29376 27328 32352 25536 28864
1415 27520 27200 32352 25536 28864
1416 27456 26752 32352 25536 28864
1417 28416 27200 32352 25536 28864
1418 27136 26560 32352 25536 28864
1419 27200 26560 32352 25536 28864
1420 27904 27200 32320 25536 28880
1421 26880 27200 32320 25536 28880
1422 26432 27008 32320 25536 28880
1423 26304 27008 32320 25536 28880
1424 26880 27520 32320 25536 28880
1425 27008 27456 32320 25536 28880
1426 26816 27392 32320 25536 28880
1427 26816 27584 32320 25536 28880
1428 27840 26944 32320 25536 28880
1429 35904 26816 32320 25536 28880
1430 43968 27200 32336 25536 28864
1431 40448 27392 32336 25536 28864
1432 25024 27712 32336 25536 28864
1433 17536 27328 32336 25536 28864
1434 18304 26880 32336 25536 28864
1435 20544 27072 32336 25536 28864
1436 23872 26880 32336 25536 28864
1437 26368 26752 32336 25536 28864
1438 27776 27008 32336 25536 28864
1439 28224 26624 32336 25536 28864
1440 28288 26560 32352 25536 28864
1441 27904 26624 32352 25536 28864
1442 28544 26944 32352 25536 28864
1443 28480 26816 32352 25536 28864
1444 28352 26816 32352 25536 28864
1445 28608 26752 32352 25536 28864
1446 28992 26688 32352 25536 28864
1447 28928 26624 32352 25536 28864
1448 29504 26816 32352 25536 28864
1449 29056 26688 32352 25536 28864
1450 29632 26688 32336 25568 28880
1451 29056 26496 32336 25568 28880
1452 29760 26688 32336 25568 28880
1453 30080 26752 32336 25568 28880
1454 30400 26368 32336 25568 28880
1455 30784 27520 32336 25568 28880
1456 31040 28160 32336 25568 28880
1457 31552 28800 32336 25568 28880
1458 31680 29120 32336 25568 28880
1459 32256 29376 32336 25568 28880
1460 32256 28992 32336 25568 28880
1461 32704 29184 32336 25568 28880
1462 32448 29184 32336 25568 28880
1463 31936 28928 32336 25568 28880
1464 32256 28736 32336 25568 28880
1465 31040 28480 32336 25568 28880
1466 30400 28416 32336 25568 28880
1467 29952 28480 32336 25568 28880
1468 29504 28672 32336 25568 28880
1469 28672 28032 32336 25568 28880
1470 27776 28160 32320 25568 28912
1471 27328 28224 32320 25568 28912
1472 27264 28096 32320 25568 28912
1473 27264 28544 32320 25568 28912
1474 27136 28160 32320 25568 28912
1475 27328 27840 32320 25568 28912
1476 27968 28544 32320 25568 28912
1477 27712 28160 32320 25568 28912
1478 27456 28032 32320 25568 28912
1479 27712 28416 32320 25568 28912
1480 28288 28864 32352 25568 28896
1481 27776 28608 32352 25568 28896
1482 28032 28352 32352 25568 28896
1483 28160 28736 32352 25568 28896
1484 27776 28480 32352 25568 28896
1485 27968 28736 32352 25568 28896
1486 28352 28672 32352 25568 28896
1487 27520 28480 32352 25568 28896
1488 28032 28480 32352 25568 28896
1489 28224 28608 32352 25568 28896
1490 27648 28480 32320 25536 28912
1491 27648 28288 32320 25536 28912
1492 27968 29056 32320 25536 28912
1493 27456 28736 32320 25536 28912
1494 27904 28544 32320 25536 28912
1495 27840 28608 32320 25536 28912
1496 27136 28608 32320 25536 28912
1497 27584 28416 32320 25536 28912
1498 27968 28800 32320 25536 28912
1499 27904 28672 32320 25536 28912
1500 27520 28608 32352 25536 28928
1501 28160 28672 32352 25536 28928
1502 28608 28864 32352 25536 28928
1503 28992 28864 32352 25536 28928
1504 29440 28736 32352 25536 28928
1505 29504 28736 32352 25536 28928
1506 28992 28480 32352 25536 28928
1507 28288 28544 32352 25536 28928
1508 29120 28992 32352 25536 28928
1509 28608 28800 32352 25536 28928
1510 28096 28416 32224 25536 28864
1511 28544 28352 32224 25536 28864
1512 27968 28224 32224 25536 28864
1513 26944 27840 32224 25536 28864
1514 28032 28032 32224 25536 28864
1515 27008 28096 32224 25536 28864
1516 27520 28352 32224 25536 28864
1517 27776 28352 32224 25536 28864
1518 27520 28096 32224 25536 28864
1519 28928 28224 32224 25536 28864
1520 36160 28096 32224 25536 28864
1521 44352 27840 32224 25536 28864
1522 41856 27520 32224 25536 28864
1523 27264 27776 32224 25536 28864
1524 18944 27328 32224 25536 28864
1525 20224 27136 32224 25536 28864
1526 22592 27392 32224 25536 28864
1527 25792 27200 32224 25536 28864
1528 28032 27200 32224 25536 28864
1529 29952 27264 32224 25536 28864
1530 29248 27008 32320 25504 28864
1531 30272 26944 32320 25504 28864
1532 30400 27456 32320 25504 28864
1533 30528 27456 32320 25504 28864
1534 30336 27072 32320 25504 28864
1535 29888 26752 32320 25504 28864
1536 30592 26880 32320 25504 28864
1537 30528 26816 32320 25504 28864
1538 31552 27328 32320 25504 28864
1539 31040 27136 32320 25504 28864
1540 31680 27264 32336 25552 28864
1541 31296 27008 32336 25552 28864
1542 31424 27328 32336 25552 28864
1543 31936 27392 32336 25552 28864
1544 32064 27200 32336 25552 28864
1545 32192 26816 32336 25552 28864
1546 33024 27456 32336 25552 28864
1547 33024 27136 32336 25552 28864
1548 33856 27264 32336 25552 28864
1549 33984 27136 32336 25552 28864
1550 34560 27648 32352 25504 28832
1551 34368 27008 32352 25504 28832
1552 34112 27200 32352 25504 28832
1553 34176 27392 32352 25504 28832
1554 33984 27200 32352 25504 28832
1555 33792 27072 32352 25504 28832
1556 33856 27008 32352 25504 28832
1557 33024 26432 32352 25504 28832
1558 31936 26112 32352 25504 28832
1559 32192 26688 32352 25504 28832
1560 31104 26560 32336 25536 28880
1561 30656 26240 32336 25536 28880
1562 30208 26624 32336 25536 28880
1563 30144 26496 32336 25536 28880
1564 30016 26240 32336 25536 28880
1565 30144 26496 32336 25536 28880
1566 29632 26688 32336 25536 28880
1567 29824 26112 32336 25536 28880
1568 30016 26112 32336 25536 28880
1569 29952 26048 32336 25536 28880
1570 30272 25984 32336 25536 28880
1571 30848 26304 32336 25536 28880
1572 30272 25984 32336 25536 28880
1573 30784 26432 32336 25536 28880
1574 30784 26560 32336 25536 28880
1575 30784 26624 32336 25536 28880
1576 30336 26560 32336 25536 28880
1577 30656 26752 32336 25536 28880
1578 30144 26368 32336 25536 28880
1579 29760 26368 32336 25536 28880
1580 30144 26752 32368 25504 28896
1581 30144 26624 32368 25504 28896
1582 29632 26752 32368 25504 28896
1583 30208 27136 32368 25504 28896
1584 29888 26880 32368 25504 28896
1585 30272 26816 32368 25504 28896
1586 29888 26944 32368 25504 28896
1587 30208 26688 32368 25504 28896
1588 29888 26496 32368 25504 28896
1589 30336 26624 32368 25504 28896
1590 31040 26752 32320 25568 28864
1591 31296 27072 32320 25568 28864
1592 31040 27008 32320 25568 28864
1593 29760 26624 32320 25568 28864
1594 30400 27072 32320 25568 28864
1595 30848 27200 32320 25568 28864
1596 29760 26944 32320 25568 28864
1597 30208 27136 32320 25568 28864
1598 29632 26944 32320 25568 28864
1599 29504 27200 32320 25568 28864
1600 29504 27264 32336 25552 28896
1601 29632 27392 32336 25552 28896
1602 29248 27648 32336 25552 28896
1603 29440 27392 32336 25552 28896
1604 29504 27200 32336 25552 28896
1605 30016 27264 32336 25552 28896
1606 35840 27008 32336 25552 28896
1607 43456 27264 32336 25552 28896
1608 46592 27136 32336 25552 28896
1609 35904 27456 32336 25552 28896
1610 25792 27584 32384 25536 28896
1611 24320 27136 32384 25536 28896
1612 26624 26496 32384 25536 28896
1613 28352 27136 32384 25536 28896
1614 28608 26624 32384 25536 28896
1615 29952 26240 32384 25536 28896
1616 29824 27200 32384 25536 28896
1617 29888 28032 32384 25536 28896
1618 29888 29120 32384 25536 28896
1619 29568 29312 32384 25536 28896
1620 30272 29568 32384 25536 28896
1621 30080 29696 32384 25536 28896
1622 29568 29056 32384 25536 28896
1623 30528 29440 32384 25536 28896
1624 30208 29056 32384 25536 28896
1625 30848 28800 32384 25536 28896
1626 30208 28352 32384 25536 28896
1627 30464 28352 32384 25536 28896
1628 30336 28288 32384 25536 28896
1629 30464 27904 32384 25536 28896
1630 31296 27904 32448 25568 28896
1631 30976 27904 32448 25568 28896
1632 30656 27392 32448 25568 28896
1633 30592 26560 32448 25568 28896
1634 32512 27968 32448 25568 28896
1635 32256 27776 32448 25568 28896
1636 32512 27904 32448 25568 28896
1637 32768 27776 32448 25568 28896
1638 32768 27776 32448 25568 28896
1639 32128 27456 32448 25568 28896
1640 32704 27456 32464 25552 28896
1641 32064 27200 32464 25552 28896
1642 32256 26880 32464 25552 28896
1643 31424 26880 32464 25552 28896
1644 30976 26816 32464 25552 28896
1645 30912 27072 32464 25552 28896
1646 30144 27136 32464 25552 28896
1647 28864 26688 32464 25552 28896
1648 28800 26432 32464 25552 28896
1649 28416 26112 32464 25552 28896
1650 28288 26560 32256 25568 28848
1651 28480 26496 32256 25568 28848
1652 27968 26240 32256 25568 28848
1653 28544 26368 32256 25568 28848
1654 28544 26496 32256 25568 28848
1655 28288 26112 32256 25568 28848
1656 28992 26368 32256 25568 28848
1657 28288 25728 32256 25568 28848
1658 28352 25856 32256 25568 28848
1659 28160 25856 32256 25568 28848
1660 28096 25280 32352 25536 28896
1661 27968 25152 32352 25536 28896
1662 28032 24960 32352 25536 28896
1663 27648 24960 32352 25536 28896
1664 27648 24768 32352 25536 28896
1665 27456 24384 32352 25536 28896
1666 27584 24832 32352 25536 28896
1667 26688 23936 32352 25536 28896
1668 27136 24256 32352 25536 28896
1669 26880 24064 32352 25536 28896
1670 26560 24064 32352 25536 28896
1671 27392 24128 32352 25536 28896
1672 27328 23680 32352 25536 28896
1673 27456 23424 32352 25536 28896
1674 26944 22912 32352 25536 28896
1675 27392 23232 32352 25536 28896
1676 25920 22592 32352 25536 28896
1677 26112 22848 32352 25536 28896
1678 25984 22720 32352 25536 28896
1679 25088 22400 32352 25536 28896
1680 24832 22400 32320 25568 28880
1681 24512 22464 32320 25568 28880
1682 24064 22272 32320 25568 28880
1683 23872 22016 32320 25568 28880
1684 23808 21504 32320 25568 28880
1685 23488 21312 32320 25568 28880
1686 23040 21184 32320 25568 28880
1687 22720 21184 32320 25568 28880
1688 23616 21056 32320 25568 28880
1689 29440 20352 32320 25568 28880
1690 37248 20352 32368 25568 28880
1691 39104 20736 32368 25568 28880
1692 25984 20800 32368 25568 28880
1693 16960 20800 32368 25568 28880
1694 16384 20224 32368 25568 28880
1695 18240 19904 32368 25568 28880
1696 19008 19776 32368 25568 28880
1697 20160 19520 32368 25568 28880
1698 20672 19264 32368 25568 28880
1699 21120 19008 32368 25568 28880
1700 21824 19136 32480 25536 28896
1701 21184 18496 32480 25536 28896
1702 20992 18240 32480 25536 28896
1703 21120 18496 32480 25536 28896
1704 21120 18176 32480 25536 28896
1705 20544 17664 32480 25536 28896
1706 20928 17536 32480 25536 28896
1707 20672 17408 32480 25536 28896
1708 20864 17152 32480 25536 28896
1709 20160 16960 32480 25536 28896
1710 20544 17024 32288 25552 28848
1711 19584 16192 32288 25552 28848
1712 19456 15872 32288 25552 28848
1713 19776 16000 32288 25552 28848
1714 19904 15872 32288 25552 28848
1715 19904 15808 32288 25552 28848
1716 20224 15872 32288 25552 28848
1717 20544 15680 32288 25552 28848
1718 20416 15552 32288 25552 28848
1719 20672 15552 32288 25552 28848
1720 20672 14912 32288 25552 28848
1721 20800 15168 32288 25552 28848
1722 20288 15232 32288 25552 28848
1723 19968 14784 32288 25552 28848
1724 19648 14912 32288 25552 28848
1725 18816 14400 32288 25552 28848
1726 18304 14592 32288 25552 28848
1727 17664 14784 32288 25552 28848
1728 16704 14656 32288 25552 28848
1729 16000 14848 32288 25552 28848
1730 15040 14656 32416 25552 28880
1731 14848 14720 32416 25552 28880
1732 14080 14464 32416 25552 28880
1733 14080 14528 32416 25552 28880
1734 13504 14144 32416 25552 28880
1735 13888 14144 32416 25552 28880
1736 13568 13888 32416 25552 28880
1737 13120 13824 32416 25552 28880
1738 13120 13632 32416 25552 28880
1739 13376 13824 32416 25552 28880
1740 13248 13952 32352 25504 28928
1741 12608 13632 32352 25504 28928
1742 12416 13312 32352 25504 28928
1743 12544 13824 32352 25504 28928
1744 12544 13888 32352 25504 28928
1745 12288 13696 32352 25504 28928
1746 12032 13696 32352 25504 28928
1747 12032 14016 32352 25504 28928
1748 12032 13760 32352 25504 28928
1749 12160 13760 32352 25504 28928
1750 11584 13248 32384 25552 28928
1751 11456 13504 32384 25552 28928
1752 11392 13440 32384 25552 28928
1753 11584 13632 32384 25552 28928
1754 10944 13440 32384 25552 28928
1755 10240 13376 32384 25552 28928
1756 10880 13824 32384 25552 28928
1757 11136 13632 32384 25552 28928
1758 11904 13632 32384 25552 28928
1759 12032 14016 32384 25552 28928
1760 11328 13888 32400 25568 28976
1761 11072 14080 32400 25568 28976
1762 11008 14272 32400 25568 28976
1763 11392 14400 32400 25568 28976
1764 10560 14400 32400 25568 28976
1765 10752 14592 32400 25568 28976
1766  9856 14272 32400 25568 28976
1767  9536 14528 32400 25568 28976
1768  9344 14080 32400 25568 28976
1769  8960 13888 32400 25568 28976
1770  9472 14464 32400 25568 28976
1771  9536 14272 32400 25568 28976
1772  9088 14336 32400 25568 28976
1773 10368 14656 32400 25568 28976
1774 16320 14656 32400 25568 28976
1775 23808 14272 32400 25568 28976
1776 27008 15168 32400 25568 28976
1777 12480 15168 32400 25568 28976
1778  3520 15616 32400 25568 28976
1779  2176 15104 32400 25568 28976
1780  4032 14976 32224 25472 28864
1781  6528 15104 32224 25472 28864
1782  8192 15488 32224 25472 28864
1783 10816 15680 32224 25472 28864
1784 11008 15168 32224 25472 28864
1785 11136 15488 32224 25472 28864
1786 11840 15680 32224 25472 28864
1787 12224 15872 32224 25472 28864
1788 11776 15552 32224 25472 28864
1789 12096 15936 32224 25472 28864
1790 12160 15936 32368 25520 28832
1791 12096 15744 32368 25520 28832
1792 12800 16512 32368 25520 28832
1793 12928 16448 32368 25520 28832
1794 13056 17088 32368 25520 28832
1795 13184 17280 32368 25520 28832
1796 13504 16832 32368 25520 28832
1797 13632 17088 32368 25520 28832
1798 13696 17088 32368 25520 28832
1799 14336 17344 32368 25520 28832
1800 14400 17472 32336 25568 28848
1801 15488 17664 32336 25568 28848
1802 15488 17472 32336 25568 28848
1803 16448 17664 32336 25568 28848
1804 16768 17920 32336 25568 28848
1805 17088 17984 32336 25568 28848
1806 17536 18112 32336 25568 28848
1807 17472 18560 32336 25568 28848
1808 17664 18816 32336 25568 28848
1809 17088 18816 32336 25568 28848
1810 16512 19072 32320 25568 28864
1811 16320 19008 32320 25568 28864
1812 15168 19008 32320 25568 28864
1813 14400 18880 32320 25568 28864
1814 14336 19200 32320 25568 28864
1815 13568 19328 32320 25568 28864
1816 13440 19392 32320 25568 28864
1817 13632 19840 32320 25568 28864
1818 13312 19712 32320 25568 28864
1819 13248 19776 32320 25568 28864
1820 13312 19776 32384 25504 28864
1821 13184 19968 32384 25504 28864
1822 13568 20224 32384 25504 28864
1823 13952 20800 32384 25504 28864
1824 14080 20800 32384 25504 28864
1825 14208 21184 32384 25504 28864
1826 14400 21312 32384 25504 28864
1827 14400 21120 32384 25504 28864
1828 15040 21312 32384 25504 28864
1829 14784 21440 32384 25504 28864
1830 15040 21440 32384 25504 28864
1831 15360 21504 32384 25504 28864
1832 15104 21696 32384 25504 28864
1833 14912 21824 32384 25504 28864
1834 15488 22336 32384 25504 28864
1835 15680 22400 32384 25504 28864
1836 15744 22336 32384 25504 28864
1837 15168 22272 32384 25504 28864
1838 15104 22080 32384 25504 28864
1839 15680 22656 32384 25504 28864
1840 16128 22784 32368 25504 28864
1841 15488 22784 32368 25504 28864
1842 15424 22656 32368 25504 28864
1843 16192 23232 32368 25504 28864
1844 16256 22912 32368 25504 28864
1845 17088 23360 32368 25504 28864
1846 18048 24000 32368 25504 28864
1847 17600 24640 32368 25504 28864
1848 17152 24640 32368 25504 28864
1849 16960 24960 32368 25504 28864
1850 18304 24576 32352 25504 28832
1851 17152 24384 32352 25504 28832
1852 17856 24960 32352 25504 28832
1853 17344 25152 32352 25504 28832
1854 17152 25152 32352 25504 28832
1855 16768 25024 32352 25504 28832
1856 17600 25216 32352 25504 28832
1857 17536 25088 32352 25504 28832
1858 17728 25280 32352 25504 28832
1859 17472 24960 32352 25504 28832
1860 17664 24832 32368 25600 28880
1861 20928 25152 32368 25600 28880
1862 28992 25216 32368 25600 28880
1863 36032 25536 32368 25600 28880
1864 28288 26048 32368 25600 28880
1865 15296 26432 32368 25600 28880
1866  9344 26624 32368 25600 28880
1867 12224 25792 32368 25600 28880
1868 14144 26432 32368 25600 28880
1869 17088 26816 32368 25600 28880
1870 19200 26432 32384 25568 28912
1871 20544 26496 32384 25568 28912
1872 20864 26944 32384 25568 28912
1873 21312 26944 32384 25568 28912
1874 21568 27136 32384 25568 28912
1875 21824 27136 32384 25568 28912
1876 22016 27264 32384 25568 28912
1877 22144 26624 32384 25568 28912
1878 22784 27584 32384 25568 28912
1879 22912 27904 32384 25568 28912
1880 22848 28608 32384 25568 28912
1881 23616 28992 32384 25568 28912
1882 23744 29120 32384 25568 28912
1883 24128 28608 32384 25568 28912
1884 23616 28032 32384 25568 28912
1885 24512 28480 32384 25568 28912
1886 25472 28864 32384 25568 28912
1887 25856 28800 32384 25568 28912
1888 25792 28608 32384 25568 28912
1889 26304 28480 32384 25568 28912
1890 27072 28864 32384 25568 28896
1891 28032 29120 32384 25568 28896
1892 28480 29312 32384 25568 28896
1893 28096 29312 32384 25568 28896
1894 28352 29248 32384 25568 28896
1895 28224 29248 32384 25568 28896
1896 28544 29120 32384 25568 28896
1897 28288 29248 32384 25568 28896
1898 27712 29568 32384 25568 28896
1899 27072 29120 32384 25568 28896
1900 26496 29312 32272 25568 28864
1901 26240 29440 32272 25568 28864
1902 25152 28992 32272 25568 28864
1903 25408 29312 32272 25568 28864
1904 24832 29696 32272 25568 28864
1905 25152 29568 32272 25568 28864
1906 24704 29696 32272 25568 28864
1907 25216 29632 32272 25568 28864
1908 25280 29760 32272 25568 28864
1909 25088 29888 32272 25568 28864
1910 24640 29504 32352 25568 28848
1911 25280 29248 32352 25568 28848
1912 25664 29696 32352 25568 28848
1913 25856 29312 32352 25568 28848
1914 26176 29184 32352 25568 28848
1915 25856 28480 32352 25568 28848
1916 26944 28416 32352 25568 28848
1917 26880 28544 32352 25568 28848
1918 26560 28288 32352 25568 28848
1919 27072 29056 32352 25568 28848
1920 27008 28928 32480 25504 28896
1921 27456 28992 32480 25504 28896
1922 26880 28736 32480 25504 28896
1923 27072 28736 32480 25504 28896
1924 26816 28800 32480 25504 28896
1925 27008 28736 32480 25504 28896
1926 27008 28992 32480 25504 28896
1927 27584 29056 32480 25504 28896
1928 27520 29120 32480 25504 28896
1929 27264 29248 32480 25504 28896
1930 27776 29568 32480 25504 28896
1931 28032 30080 32480 25504 28896
1932 27264 29760 32480 25504 28896
1933 27392 29696 32480 25504 28896
1934 27904 29632 32480 25504 28896
1935 28800 29568 32480 25504 28896
1936 29184 30016 32480 25504 28896
1937 29376 30272 32480 25504 28896
1938 29504 30208 32480 25504 28896
1939 29248 30272 32480 25504 28896
1940 29952 30464 32448 25536 28912
1941 28864 30784 32448 25536 28912
1942 29376 30720 32448 25536 28912
1943 28608 30336 32448 25536 28912
1944 29248 30592 32448 25536 28912
1945 28800 30720 32448 25536 28912
1946 28416 30784 32448 25536 28912
1947 28416 30528 32448 25536 28912
1948 28608 30720 32448 25536 28912
1949 28928 30912 32448 25536 28912
1950 29056 30720 32416 25520 28912
1951 30976 30848 32416 25520 28912
1952 38848 30848 32416 25520 28912
1953 46080 30912 32416 25520 28912
1954 40960 31104 32416 25520 28912
1955 25984 31552 32416 25520 28912
1956 19648 31744 32416 25520 28912
1957 21568 31296 32416 25520 28912
1958 23232 31296 32416 25520 28912
1959 26688 31168 32416 25520 28912
1960 29888 31936 32384 25504 28896
1961 30080 31360 32384 25504 28896
1962 30592 31488 32384 25504 28896
1963 31168 31680 32384 25504 28896
1964 31552 31744 32384 25504 28896
1965 31552 31552 32384 25504 28896
1966 31488 31488 32384 25504 28896
1967 32192 31616 32384 25504 28896
1968 31936 31552 32384 25504 28896
1969 32384 32000 32384 25504 28896
1970 32704 32064 32336 25584 28896
1971 32768 31744 32336 25584 28896
1972 33408 32000 32336 25584 28896
1973 33344 31808 32336 25584 28896
1974 33088 31744 32336 25584 28896
1975 33664 31488 32336 25584 28896
1976 34560 31680 32336 25584 28896
1977 33984 31488 32336 25584 28896
1978 35136 31616 32336 25584 28896
1979 35584 32000 32336 25584 28896
1980 36160 31616 32336 25584 28896
1981 36544 31808 32336 25584 28896
1982 37440 31936 32336 25584 28896
1983 36736 31488 32336 25584 28896
1984 36800 31936 32336 25584 28896
1985 38016 32320 32336 25584 28896
1986 37184 32064 32336 25584 28896
1987 37440 32128 32336 25584 28896
1988 36672 32320 32336 25584 28896
1989 36352 32704 32336 25584 28896
1990 35200 32384 32400 25536 28864
1991 35136 32448 32400 25536 28864
1992 34112 32192 32400 25536 28864
1993 33792 32256 32400 25536 28864
1994 33344 32256 32400 25536 28864
1995 33088 32256 32400 25536 28864
1996 33664 32768 32400 25536 28864
1997 33408 32832 32400 25536 28864
1998 33280 32448 32400 25536 28864
1999 33600 32704 32400 25536 28864
2000 33600 32704 32384 25536 28960
2001 33472 32896 32384 25536 28960
2002 33728 33088 32384 25536 28960
2003 34048 32896 32384 25536 28960
2004 34688 32896 32384 25536 28960
2005 34240 32960 32384 25536 28960
2006 34560 32704 32384 25536 28960
2007 34752 32832 32384 25536 28960
2008 34688 32704 32384 25536 28960
2009 34688 32320 32384 25536 28960
2010 34176 32320 32400 25584 28912
2011 34880 33024 32400 25584 28912
2012 34112 31680 32400 25584 28912
2013 34368 31296 32400 25584 28912
2014 34816 31360 32400 25584 28912
2015 34496 31424 32400 25584 28912
2016 33280 30784 32400 25584 28912
2017 34432 31488 32400 25584 28912
2018 34560 31360 32400 25584 28912
2019 34688 31488 32400 25584 28912
2020 34112 31104 32368 25600 28944
2021 34176 31168 32368 25600 28944
2022 34880 31488 32368 25600 28944
2023 34816 31424 32368 25600 28944
2024 36032 31232 32368 25600 28944
2025 35840 30912 32368 25600 28944
2026 36480 31488 32368 25600 28944
2027 35968 31680 32368 25600 28944
2028 35520 31424 32368 25600 28944
2029 35648 31360 32368 25600 28944
2030 35584 31552 32368 25600 28944
2031 34816 31488 32368 25600 28944
2032 34944 31744 32368 25600 28944
2033 34368 31232 32368 25600 28944
2034 34560 31040 32368 25600 28944
2035 34496 31104 32368 25600 28944
2036 33600 30976 32368 25600 28944
2037 34048 30784 32368 25600 28944
2038 34816 31040 32368 25600 28944
2039 35520 31168 32368 25600 28944
2040 42368 30720 32512 25440 28960
2041 50176 30720 32512 25440 28960
2042 49984 32000 32512 25440 28960
2043 35840 32064 32512 25440 28960
2044 28672 31808 32512 25440 28960
2045 29760 31680 32512 25440 28960
2046 30912 31360 32512 25440 28960
2047 32768 31424 32512 25440 28960
2048 34240 31488 32512 25440 28960
2049 35584 31552 32512 25440 28960
2050 35904 31296 32416 25504 28912
2051 35904 31360 32416 25504 28912
2052 35968 31360 32416 25504 28912
2053 36032 31168 32416 25504 28912
2054 36480 31232 32416 25504 28912
2055 36608 31488 32416 25504 28912
2056 36288 31744 32416 25504 28912
2057 36800 31296 32416 25504 28912
2058 37120 31360 32416 25504 28912
2059 36352 31296 32416 25504 28912
2060 36224 31296 32400 25520 28896
2061 37120 31488 32400 25520 28896
2062 37120 31616 32400 25520 28896
2063 37632 31616 32400 25520 28896
2064 37376 31232 32400 25520 28896
2065 37376 31360 32400 25520 28896
2066 37632 31168 32400 25520 28896
2067 38080 31424 32400 25520 28896
2068 38528 31296 32400 25520 28896
2069 38720 31104 32400 25520 28896
2070 38912 31040 32416 25600 28960
2071 39104 31168 32416 25600 28960
2072 39296 30976 32416 25600 28960
2073 39168 30912 32416 25600 28960
2074 39360 30912 32416 25600 28960
2075 39168 30720 32416 25600 28960
2076 39296 30976 32416 25600 28960
2077 38656 30720 32416 25600 28960
2078 37568 30848 32416 25600 28960
2079 36800 30976 32416 25600 28960
2080 36800 30912 32448 25584 28928
2081 36736 31744 32448 25584 28928
2082 35712 31168 32448 25584 28928
2083 35264 30720 32448 25584 28928
2084 35648 30912 32448 25584 28928
2085 35392 30976 32448 25584 28928
2086 34944 30720 32448 25584 28928
2087 35264 31104 32448 25584 28928
2088 34880 30848 32448 25584 28928
2089 34816 30848 32448 25584 28928
2090 35456 31360 32448 25584 28928
2091 34560 30784 32448 25584 28928
2092 35200 30912 32448 25584 28928
2093 35328 30784 32448 25584 28928
2094 35008 30528 32448 25584 28928
2095 35136 31040 32448 25584 28928
2096 34944 30784 32448 25584 28928
2097 34752 30016 32448 25584 28928
2098 34816 29888 32448 25584 28928
2099 34816 30016 32448 25584 28928
2100 34752 30336 32416 25584 28912
2101 34752 30464 32416 25584 28912
2102 34688 30656 32416 25584 28912
2103 34368 30528 32416 25584 28912
2104 34688 30208 32416 25584 28912
2105 34496 30336 32416 25584 28912
2106 35200 30720 32416 25584 28912
2107 35520 30464 32416 25584 28912
2108 34816 30528 32416 25584 28912
2109 34112 30464 32416 25584 28912
2110 34176 30336 32352 25504 28832
2111 34176 30464 32352 25504 28832
2112 33536 30528 32352 25504 28832
2113 33856 30784 32352 25504 28832
2114 33152 30528 32352 25504 28832
2115 32960 30464 32352 25504 28832
2116 32960 30336 32352 25504 28832
2117 33024 30272 32352 25504 28832
2118 32704 30464 32352 25504 28832
2119 32832 30400 32352 25504 28832
2120 32832 30336 32400 25520 28848
2121 33792 30720 32400 25520 28848
2122 40192 30400 32400 25520 28848
2123 47744 30144 32400 25520 28848
2124 49408 30400 32400 25520 28848
2125 36992 30656 32400 25520 28848
2126 27968 30208 32400 25520 28848
2127 28160 29888 32400 25520 28848
2128 30464 30080 32400 25520 28848
2129 30592 30016 32400 25520 28848
2130 31616 29760 32368 25568 28864
2131 33472 30272 32368 25568 28864
2132 32448 29248 32368 25568 28864
2133 33088 29632 32368 25568 28864
2134 33472 30272 32368 25568 28864
2135 33536 29888 32368 25568 28864
2136 33216 29440 32368 25568 28864
2137 33536 29952 32368 25568 28864
2138 33152 29952 32368 25568 28864
2139 33280 29568 32368 25568 28864
2140 33856 30080 32368 25568 28864
2141 33216 29824 32368 25568 28864
2142 32896 29632 32368 25568 28864
2143 33536 29824 32368 25568 28864
2144 33728 29824 32368 25568 28864
2145 33920 30272 32368 25568 28864
2146 33920 29824 32368 25568 28864
2147 34496 30272 32368 25568 28864
2148 34368 30528 32368 25568 28864
2149 34432 30272 32368 25568 28864
2150 35072 30336 32352 25504 28800
2151 35328 30656 32352 25504 28800
2152 35712 30464 32352 25504 28800
2153 35520 30016 32352 25504 28800
2154 35648 29824 32352 25504 28800
2155 35840 29824 32352 25504 28800
2156 35648 29952 32352 25504 28800
2157 36224 30208 32352 25504 28800
2158 35328 29824 32352 25504 28800
2159 34752 30080 32352 25504 28800
2160 34560 30208 32368 25488 28880
2161 33792 29760 32368 25488 28880
2162 32704 29632 32368 25488 28880
2163 32768 29760 32368 25488 28880
2164 32064 30080 32368 25488 28880
2165 31808 29952 32368 25488 28880
2166 31808 29888 32368 25488 28880
2167 31936 30272 32368 25488 28880
2168 31936 30208 32368 25488 28880
2169 31552 29888 32368 25488 28880
2170 31360 29952 32352 25536 28896
2171 31872 30016 32352 25536 28896
2172 32192 29952 32352 25536 28896
2173 31744 30016 32352 25536 28896
2174 31232 29696 32352 25536 28896
2175 31680 29952 32352 25536 28896
2176 32128 30144 32352 25536 28896
2177 31808 29760 32352 25536 28896
2178 32128 30144 32352 25536 28896
2179 31680 30400 32352 25536 28896
2180 31424 30016 32384 25536 28896
2181 31488 29888 32384 25536 28896
2182 31296 30272 32384 25536 28896
2183 31168 29824 32384 25536 28896
2184 31040 30080 32384 25536 28896
2185 30848 29888 32384 25536 28896
2186 31104 30208 32384 25536 28896
2187 30656 29888 32384 25536 28896
2188 31040 29696 32384 25536 28896
2189 30656 29504 32384 25536 28896
2190 31488 29696 32384 25536 28896
2191 31744 29760 32384 25536 28896
2192 31424 29120 32384 25536 28896
2193 30784 29312 32384 25536 28896
2194 30656 29120 32384 25536 28896
2195 31680 29952 32384 25536 28896
2196 31680 29952 32384 25536 28896
2197 31360 29696 32384 25536 28896
2198 30080 29248 32384 25536 28896
2199 30272 30080 32384 25536 28896
2200 28992 29632 32384 25520 28864
2201 29248 29120 32384 25520 28864
2202 30720 30464 32384 25520 28864
2203 29760 29952 32384 25520 28864
2204 29184 29696 32384 25520 28864
2205 29696 29760 32384 25520 28864
2206 30976 29568 32384 25520 28864
2207 39232 29952 32384 25520 28864
2208 45824 29184 32384 25520 28864
2209 42112 29568 32384 25520 28864
2210 28032 29376 32416 25552 28896
2211 21568 28864 32416 25552 28896
2212 23232 28736 32416 25552 28896
2213 24896 28736 32416 25552 28896
2214 26048 28608 32416 25552 28896
2215 28864 28480 32416 25552 28896
2216 30400 28928 32416 25552 28896
2217 30272 28480 32416 25552 28896
2218 30336 28608 32416 25552 28896
2219 30720 28736 32416 25552 28896
2220 30848 28608 32320 25568 28864
2221 30848 29120 32320 25568 28864
2222 31104 29376 32320 25568 28864
2223 31488 29248 32320 25568 28864
2224 31488 29504 32320 25568 28864
2225 31040 29696 32320 25568 28864
2226 31552 29888 32320 25568 28864
2227 30784 29504 32320 25568 28864
2228 31744 29440 32320 25568 28864
2229 32000 29376 32320 25568 28864
2230 32064 29312 32368 25456 28896
2231 32256 29440 32368 25456 28896
2232 32384 29440 32368 25456 28896
2233 32832 29184 32368 25456 28896
2234 33600 29312 32368 25456 28896
2235 34048 29056 32368 25456 28896
2236 33664 28544 32368 25456 28896
2237 34496 28224 32368 25456 28896
2238 34496 28608 32368 25456 28896
2239 34432 28480 32368 25456 28896
2240 34432 28672 32368 25456 28896
2241 34624 28928 32368 25456 28896
2242 33920 29184 32368 25456 28896
2243 33536 29056 32368 25456 28896
2244 33152 28608 32368 25456 28896
2245 31616 28608 32368 25456 28896
2246 31296 28544 32368 25456 28896
2247 30592 28928 32368 25456 28896
2248 30080 28224 32368 25456 28896
2249 28800 27648 32368 25456 28896
2250 29568 27968 32352 25504 28928
2251 29504 28352 32352 25504 28928
2252 29312 28032 32352 25504 28928
2253 29568 28224 32352 25504 28928
2254 29632 28160 32352 25504 28928
2255 29376 28160 32352 25504 28928
2256 29632 28096 32352 25504 28928
2257 29760 28096 32352 25504 28928
2258 30016 28160 32352 25504 28928
2259 29376 27968 32352 25504 28928
2260 29824 27840 32384 25568 28800
2261 30016 27968 32384 25568 28800
2262 29888 27904 32384 25568 28800
2263 29888 28096 32384 25568 28800
2264 29312 28032 32384 25568 28800
2265 29952 28032 32384 25568 28800
2266 29696 27776 32384 25568 28800
2267 29440 27968 32384 25568 28800
2268 29376 27904 32384 25568 28800
2269 29440 27584 32384 25568 28800
2270 29312 27136 32400 25536 28832
2271 29056 28224 32400 25536 28832
2272 29248 28672 32400 25536 28832
2273 29504 29824 32400 25536 28832
2274 29184 30144 32400 25536 28832
2275 28992 30784 32400 25536 28832
2276 29824 30656 32400 25536 28832
2277 29760 30208 32400 25536 28832
2278 30400 30144 32400 25536 28832
2279 29952 30016 32400 25536 28832
2280 29056 29376 32368 25536 28896
2281 29888 29568 32368 25536 28896
2282 29952 29568 32368 25536 28896
2283 29632 29696 32368 25536 28896
2284 28864 29184 32368 25536 28896
2285 28736 28928 32368 25536 28896
2286 28288 28800 32368 25536 28896
2287 27904 28416 32368 25536 28896
2288 27968 28352 32368 25536 28896
2289 28608 28800 32368 25536 28896
2290 29184 28800 32368 25536 28896
2291 28224 28288 32368 25536 28896
2292 29504 28544 32368 25536 28896
2293 37056 28672 32368 25536 28896
2294 44672 28928 32368 25536 28896
2295 43072 28864 32368 25536 28896
2296 28032 29440 32368 25536 28896
2297 19584 29184 32368 25536 28896
2298 20032 28928 32368 25536 28896
2299 22016 28608 32368 25536 28896
2300 25024 28608 32416 25568 28896
2301 28032 28608 32416 25568 28896
2302 29376 28864 32416 25568 28896
2303 29248 28672 32416 25568 28896
2304 29760 28480 32416 25568 28896
2305 30144 28736 32416 25568 28896
2306 29120 28544 32416 25568 28896
2307 29696 28480 32416 25568 28896
2308 30464 28608 32416 25568 28896
2309 30720 28992 32416 25568 28896
2310 30592 28672 32368 25552 28864
2311 30400 28736 32368 25552 28864
2312 31424 29184 32368 25552 28864
2313 31424 29184 32368 25552 28864
2314 31296 28736 32368 25552 28864
2315 31232 28736 32368 25552 28864
2316 31872 28672 32368 25552 28864
2317 31872 28672 32368 25552 28864
2318 31616 28288 32368 25552 28864
2319 32704 28416 32368 25552 28864
2320 32832 28352 32416 25584 28912
2321 33792 28672 32416 25584 28912
2322 34176 28672 32416 25584 28912
2323 34304 28608 32416 25584 28912
2324 34624 28672 32416 25584 28912
2325 34560 28672 32416 25584 28912
2326 33984 28800 32416 25584 28912
2327 34496 28736 32416 25584 28912
2328 33664 28608 32416 25584 28912
2329 33280 28736 32416 25584 28912
2330 32512 28864 32256 25504 28928
2331 32064 28672 32256 25504 28928
2332 31296 28864 32256 25504 28928
2333 30464 28544 32256 25504 28928
2334 30080 28864 32256 25504 28928
2335 29888 28736 32256 25504 28928
2336 29376 28992 32256 25504 28928
2337 29376 28992 32256 25504 28928
2338 28800 28864 32256 25504 28928
2339 28800 28800 32256 25504 28928
2340 29184 28800 32304 25520 28912
2341 28672 28928 32304 25520 28912
2342 29632 29440 32304 25520 28912
2343 29376 28992 32304 25520 28912
2344 30144 29184 32304 25520 28912
2345 30080 28736 32304 25520 28912
2346 30336 28992 32304 25520 28912
2347 29824 28800 32304 25520 28912
2348 30016 28992 32304 25520 28912
2349 30080 28736 32304 25520 28912
2350 29696 28416 32304 25520 28912
2351 30400 29440 32304 25520 28912
2352 29760 28928 32304 25520 28912
2353 29632 28608 32304 25520 28912
2354 30272 28736 32304 25520 28912
2355 29440 28032 32304 25520 28912
2356 29568 27200 32304 25520 28912
2357 30080 27456 32304 25520 28912
2358 30336 26880 32304 25520 28912
2359 28928 26432 32304 25520 28912
2360 29440 27136 32336 25520 28928
2361 29568 27136 32336 25520 28928
2362 29952 27264 32336 25520 28928
2363 30080 27712 32336 25520 28928
2364 29888 27456 32336 25520 28928
2365 30272 27456 32336 25520 28928
2366 30400 27200 32336 25520 28928
2367 31168 27776 32336 25520 28928
2368 30592 27584 32336 25520 28928
2369 29760 27712 32336 25520 28928
2370 30592 28032 32448 25472 28896
2371 30592 27776 32448 25472 28896
2372 30144 27712 32448 25472 28896
2373 30080 27456 32448 25472 28896
2374 29888 27968 32448 25472 28896
2375 29312 27520 32448 25472 28896
2376 29056 27776 32448 25472 28896
2377 29504 27648 32448 25472 28896
2378 29248 27648 32448 25472 28896
2379 29952 27904 32448 25472 28896
2380 29120 27520 32448 25504 28896
2381 29376 27712 32448 25504 28896
2382 33280 27904 32448 25504 28896
2383 41408 27840 32448 25504 28896
2384 47488 28032 32448 25504 28896
2385 36736 28480 32448 25504 28896
2386 24192 28416 32448 25504 28896
2387 20224 28288 32448 25504 28896
2388 24192 27648 32448 25504 28896
2389 25088 27648 32448 25504 28896
2390 28032 28032 32448 25504 28896
2391 30400 27648 32448 25504 28896
2392 30912 27520 32448 25504 28896
2393 30592 27648 32448 25504 28896
2394 31168 27520 32448 25504 28896
2395 31104 27456 32448 25504 28896
2396 32000 27392 32448 25504 28896
2397 32192 27968 32448 25504 28896
2398 31872 27840 32448 25504 28896
2399 32384 27776 32448 25504 28896
2400 32256 27520 32400 25568 28912
2401 32256 27392 32400 25568 28912
2402 32512 28096 32400 25568 28912
2403 32704 27904 32400 25568 28912
2404 32832 27840 32400 25568 28912
2405 32896 27584 32400 25568 28912
2406 33536 28352 32400 25568 28912
2407 33472 28160 32400 25568 28912
2408 34560 28608 32400 25568 28912
2409 35456 28800 32400 25568 28912
2410 35520 28672 32416 25504 28896
2411 35776 28864 32416 25504 28896
2412 36800 29056 32416 25504 28896
2413 36864 29568 32416 25504 28896
2414 36800 29184 32416 25504 28896
2415 36608 28672 32416 25504 28896
2416 36608 29312 32416 25504 28896
2417 36416 29696 32416 25504 28896
2418 35968 29440 32416 25504 28896
2419 35520 29952 32416 25504 28896
2420 34944 29888 32416 25552 28896
2421 34048 29504 32416 25552 28896
2422 34176 29760 32416 25552 28896
2423 32960 29632 32416 25552 28896
2424 32128 29376 32416 25552 28896
2425 32064 29376 32416 25552 28896
2426 32448 29568 32416 25552 28896
2427 32448 29632 32416 25552 28896
2428 31808 29248 32416 25552 28896
2429 32128 29248 32416 25552 28896
2430 32192 29376 32432 25568 28832
2431 32064 29440 32432 25568 28832
2432 31808 29568 32432 25568 28832
2433 32640 29696 32432 25568 28832
2434 32192 29504 32432 25568 28832
2435 32384 29504 32432 25568 28832
2436 32576 29888 32432 25568 28832
2437 32064 29568 32432 25568 28832
2438 32064 29184 32432 25568 28832
2439 32384 29184 32432 25568 28832
2440 32064 29248 32416 25504 28832
2441 31936 29504 32416 25504 28832
2442 31808 29632 32416 25504 28832
2443 31680 29376 32416 25504 28832
2444 32000 29504 32416 25504 28832
2445 31616 29440 32416 25504 28832
2446 31936 29312 32416 25504 28832
2447 31424 29504 32416 25504 28832
2448 32000 29952 32416 25504 28832
2449 31872 29888 32416 25504 28832
2450 31680 29888 32416 25504 28832
2451 32320 29696 32416 25504 28832
2452 32384 30080 32416 25504 28832
2453 32896 30016 32416 25504 28832
2454 32896 30080 32416 25504 28832
2455 32576 29952 32416 25504 28832
2456 31936 29696 32416 25504 28832
2457 33152 30016 32416 25504 28832
2458 32192 29952 32416 25504 28832
2459 32384 30080 32416 25504 28832
2460 31488 29632 32400 25504 28864
2461 31296 29696 32400 25504 28864
2462 31552 30080 32400 25504 28864
2463 31168 29952 32400 25504 28864
2464 31296 29824 32400 25504 28864
2465 31360 30144 32400 25504 28864
2466 31232 30080 32400 25504 28864
2467 31680 29888 32400 25504 28864
2468 36288 29696 32400 25504 28864
2469 44160 29696 32400 25504 28864
2470 48704 29888 32384 25504 28928
2471 39872 30528 32384 25504 28928
2472 29312 30272 32384 25504 28928
2473 27072 29952 32384 25504 28928
2474 29632 29696 32384 25504 28928
2475 29760 30144 32384 25504 28928
2476 30720 30080 32384 25504 28928
2477 31872 29824 32384 25504 28928
2478 31872 29888 32384 25504 28928
2479 32512 30080 32384 25504 28928
2480 32448 30400 32320 25504 28864
2481 32192 30208 32320 25504 28864
2482 32576 30400 32320 25504 28864
2483 32768 30016 32320 25504 28864
2484 32064 29760 32320 25504 28864
2485 32896 30208 32320 25504 28864
2486 32704 30080 32320 25504 28864
2487 32384 30144 32320 25504 28864
2488 32640 30016 32320 25504 28864
2489 32768 29696 32320 25504 28864
2490 32832 29696 32368 25504 28864
2491 32960 30144 32368 25504 28864
2492 32640 30144 32368 25504 28864
2493 32832 29888 32368 25504 28864
2494 33664 29952 32368 25504 28864
2495 34304 30016 32368 25504 28864
2496 34240 29888 32368 25504 28864
2497 34816 29952 32368 25504 28864
2498 35008 30080 32368 25504 28864
2499 35072 30016 32368 25504 28864
2500 35136 30080 32368 25504 28864
2501 35264 29888 32368 25504 28864
2502 35264 29888 32368 25504 28864
2503 35520 29504 32368 25504 28864
2504 34880 28864 32368 25504 28864
2505 34816 28352 32368 25504 28864
2506 34752 28352 32368 25504 28864
2507 33920 28288 32368 25504 28864
2508 32768 28224 32368 25504 28864
2509 32512 27840 32368 25504 28864
2510 32128 28224 32400 25536 28880
2511 31808 28032 32400 25536 28880
2512 31680 27968 32400 25536 28880
2513 31360 27968 32400 25536 28880
2514 31104 27904 32400 25536 28880
2515 31808 28032 32400 25536 28880
2516 31488 27968 32400 25536 28880
2517 31808 27776 32400 25536 28880
2518 31424 28032 32400 25536 28880
2519 31552 28160 32400 25536 28880
2520 31296 28224 32416 25504 29024
2521 31680 28416 32416 25504 29024
2522 31616 28608 32416 25504 29024
2523 31488 28992 32416 25504 29024
2524 31168 29632 32416 25504 29024
2525 30976 30144 32416 25504 29024
2526 31296 31360 32416 25504 29024
2527 30976 32512 32416 25504 29024
2528 30656 33472 32416 25504 29024
2529 30016 33792 32416 25504 29024
2530 30208 34496 32352 25552 28944
2531 30336 34944 32352 25552 28944
2532 29696 34752 32352 25552 28944
2533 29632 34496 32352 25552 28944
2534 30144 33856 32352 25552 28944
2535 30528 33152 32352 25552 28944
2536 31040 32512 32352 25552 28944
2537 31552 32128 32352 25552 28944
2538 31104 31744 32352 25552 28944
2539 30848 31168 32352 25552 28944
2540 30336 31296 32384 25504 28944
2541 30976 30848 32384 25504 28944
2542 30272 30720 32384 25504 28944
2543 30464 30528 32384 25504 28944
2544 29952 30016 32384 25504 28944
2545 29440 30016 32384 25504 28944
2546 29120 30144 32384 25504 28944
2547 29696 30336 32384 25504 28944
2548 29184 29632 32384 25504 28944
2549 29504 29952 32384 25504 28944
2550 29376 29760 32384 25504 28944
2551 29568 29440 32384 25504 28944
2552 33600 29440 32384 25504 28944
2553 41280 29376 32384 25504 28944
2554 46912 29632 32384 25504 28944
2555 37504 29952 32384 25504 28944
2556 25536 30080 32384 25504 28944
2557 23040 29504 32384 25504 28944
2558 24832 29312 32384 25504 28944
2559 26112 28864 32384 25504 28944
2560 27456 28480 32512 25472 28800
2561 30272 29184 32512 25472 28800
2562 30528 29056 32512 25472 28800
2563 29888 28672 32512 25472 28800
2564 30528 28672 32512 25472 28800
2565 31232 28992 32512 25472 28800
2566 30848 28864 32512 25472 28800
2567 30720 28928 32512 25472 28800
2568 30976 29120 32512 25472 28800
2569 30848 28992 32512 25472 28800
2570 31360 29056 32496 25488 28848
2571 31104 29184 32496 25488 28848
2572 31488 29376 32496 25488 28848
2573 31808 29120 32496 25488 28848
2574 31488 28800 32496 25488 28848
2575 31808 30080 32496 25488 28848
2576 32320 31360 32496 25488 28848
2577 32064 30784 32496 25488 28848
2578 32704 30400 32496 25488 28848
2579 33024 30336 32496 25488 28848
2580 33216 30336 32400 25488 28864
2581 34432 30272 32400 25488 28864
2582 34240 30080 32400 25488 28864
2583 34496 29568 32400 25488 28864
2584 34624 29440 32400 25488 28864
2585 34624 29952 32400 25488 28864
2586 35008 29888 32400 25488 28864
2587 34688 29760 32400 25488 28864
2588 34304 29824 32400 25488 28864
2589 33472 29440 32400 25488 28864
2590 32896 29568 32448 25504 28896
2591 32192 29312 32448 25504 28896
2592 31040 29056 32448 25504 28896
2593 30720 29568 32448 25504 28896
2594 30464 29760 32448 25504 28896
2595 30144 29824 32448 25504 28896
2596 29824 29440 32448 25504 28896
2597 29440 29504 32448 25504 28896
2598 29568 29824 32448 25504 28896
2599 29056 29440 32448 25504 28896
2600 29440 29248 32464 25552 28864
2601 29632 29568 32464 25552 28864
2602 29440 28992 32464 25552 28864
2603 29632 29312 32464 25552 28864
2604 29184 28480 32464 25552 28864
2605 29184 28608 32464 25552 28864
2606 30208 28992 32464 25552 28864
2607 29952 29056 32464 25552 28864
2608 29632 29056 32464 25552 28864
2609 30016 28992 32464 25552 28864
2610 29760 28608 32464 25552 28864
2611 30080 28544 32464 25552 28864
2612 29632 28480 32464 25552 28864
2613 29696 28672 32464 25552 28864
2614 29248 28224 32464 25552 28864
2615 29120 28416 32464 25552 28864
2616 29248 28416 32464 25552 28864
2617 29312 28480 32464 25552 28864
2618 29312 28608 32464 25552 28864
2619 29568 28736 32464 25552 28864
2620 30080 28544 32432 25520 28864
2621 30272 28480 32432 25520 28864
2622 31296 28864 32432 25520 28864
2623 30272 28416 32432 25520 28864
2624 29760 28416 32432 25520 28864
2625 29824 28288 32432 25520 28864
2626 30272 28608 32432 25520 28864
2627 29376 28864 32432 25520 28864
2628 29952 28544 32432 25520 28864
2629 29056 28864 32432 25520 28864
2630 28672 28864 32320 25440 28864
2631 29056 28928 32320 25440 28864
2632 28992 28864 32320 25440 28864
2633 28864 28608 32320 25440 28864
2634 27968 28096 32320 25440 28864
2635 29056 27968 32320 25440 28864
2636 29184 28288 32320 25440 28864
2637 32768 27520 32320 25440 28864
2638 40960 27520 32320 25440 28864
2639 46848 27904 32320 25440 28864
2640 34752 28544 32368 25472 28912
2641 23616 28736 32368 25472 28912
2642 20416 28224 32368 25472 28912
2643 22528 27840 32368 25472 28912
2644 24128 27712 32368 25472 28912
2645 25728 27648 32368 25472 28912
2646 28288 27584 32368 25472 28912
2647 28736 27584 32368 25472 28912
2648 29184 27520 32368 25472 28912
2649 29312 27712 32368 25472 28912
2650 29056 27968 32368 25472 28912
2651 29632 27712 32368 25472 28912
2652 29120 27968 32368 25472 28912
2653 29248 27584 32368 25472 28912
2654 30144 27904 32368 25472 28912
2655 30208 27584 32368 25472 28912
2656 29632 28032 32368 25472 28912
2657 30080 27136 32368 25472 28912
2658 30144 27200 32368 25472 28912
2659 30016 27264 32368 25472 28912
2660 30272 27328 32400 25504 28912
2661 29888 27200 32400 25504 28912
2662 30912 27072 32400 25504 28912
2663 31680 27264 32400 25504 28912
2664 31360 27136 32400 25504 28912
2665 31360 26560 32400 25504 28912
2666 32064 27072 32400 25504 28912
2667 32192 26752 32400 25504 28912
2668 31808 27072 32400 25504 28912
2669 33792 27200 32400 25504 28912
2670 34112 26496 32480 25504 28864
2671 33984 26240 32480 25504 28864
2672 34112 26432 32480 25504 28864
2673 33728 26688 32480 25504 28864
2674 33728 26560 32480 25504 28864
2675 32256 26112 32480 25504 28864
2676 30976 26112 32480 25504 28864
2677 30336 25984 32480 25504 28864
2678 29824 26048 32480 25504 28864
2679 29440 26240 32480 25504 28864
2680 29184 26304 32432 25536 28864
2681 29120 26688 32432 25536 28864
2682 28736 26304 32432 25536 28864
2683 28672 25728 32432 25536 28864
2684 28736 25856 32432 25536 28864
2685 29056 26176 32432 25536 28864
2686 28608 26048 32432 25536 28864
2687 28672 26048 32432 25536 28864
2688 29120 25856 32432 25536 28864
2689 28544 25408 32432 25536 28864
2690 28672 25152 32432 25568 28912
2691 28992 25536 32432 25568 28912
2692 28672 25088 32432 25568 28912
2693 28544 25024 32432 25568 28912
2694 27904 24640 32432 25568 28912
2695 27648 24448 32432 25568 28912
2696 27584 24256 32432 25568 28912
2697 27776 24192 32432 25568 28912
2698 27264 24128 32432 25568 28912
2699 27264 23744 32432 25568 28912
2700 27264 23680 32352 25536 28736
2701 27200 23808 32352 25536 28736
2702 26688 23616 32352 25536 28736
2703 26944 23168 32352 25536 28736
2704 27072 23168 32352 25536 28736
2705 26176 22592 32352 25536 28736
2706 26112 22592 32352 25536 28736
2707 25984 22272 32352 25536 28736
2708 28096 22272 32352 25536 28736
2709 27200 21120 32352 25536 28736
2710 26880 20800 32352 25536 28736
2711 27136 19776 32352 25536 28736
2712 26176 19200 32352 25536 28736
2713 25728 19456 32352 25536 28736
2714 26240 18944 32352 25536 28736
2715 25216 18624 32352 25536 28736
2716 24960 18752 32352 25536 28736
2717 24384 18112 32352 25536 28736
2718 23936 17664 32352 25536 28736
2719 24192 17664 32352 25536 28736
2720 23488 17280 32288 25552 28816
2721 23680 16896 32288 25552 28816
2722 24128 16128 32288 25552 28816
2723 30656 16000 32288 25552 28816
2724 38592 15616 32288 25552 28816
2725 39488 15936 32288 25552 28816
2726 24512 16512 32288 25552 28816
2727 14720 16000 32288 25552 28816
2728 13632 15360 32288 25552 28816
2729 15104 14720 32288 25552 28816
2730 18624 14656 32352 25552 28864
2731 21184 14400 32352 25552 28864
2732 22592 14080 32352 25552 28864
2733 22592 13504 32352 25552 28864
2734 23168 13760 32352 25552 28864
2735 22784 12800 32352 25552 28864
2736 22528 12736 32352 25552 28864
2737 23168 12160 32352 25552 28864
2738 22272 11712 32352 25552 28864
2739 22336 11904 32352 25552 28864
2740 22144 11520 32256 25600 28736
2741 22080 11712 32256 25600 28736
2742 21952 11200 32256 25600 28736
2743 22016 11328 32256 25600 28736
2744 21824 11008 32256 25600 28736
2745 20992 10560 32256 25600 28736
2746 21440 10048 32256 25600 28736
2747 21312  9792 32256 25600 28736
2748 21376  9088 32256 25600 28736
2749 21696  8832 32256 25600 28736
2750 21824  9024 32256 25600 28736
2751 21952  8256 32256 25600 28736
2752 22528  8256 32256 25600 28736
2753 22400  7808 32256 25600 28736
2754 22464  8320 32256 25600 28736
2755 22208  7424 32256 25600 28736
2756 21056  7104 32256 25600 28736
2757 20544  6848 32256 25600 28736
2758 20800  6528 32256 25600 28736
2759 20224  6720 32256 25600 28736
2760 18944  6528 32224 25552 28816
2761 17664  5888 32224 25552 28816
2762 16768  5760 32224 25552 28816
2763 16384  5824 32224 25552 28816
2764 15616  5568 32224 25552 28816
2765 14656  5120 32224 25552 28816
2766 14400  5184 32224 25552 28816
2767 14144  4864 32224 25552 28816
2768 13760  4352 32224 25552 28816
2769 13312  4288 32224 25552 28816
2770 13568  4032 32192 25632 28832
2771 12608  3776 32192 25632 28832
2772 12608  3776 32192 25632 28832
2773 12864  4032 32192 25632 28832
2774 12928  3712 32192 25632 28832
2775 12032  3584 32192 25632 28832
2776 12352  3840 32192 25632 28832
2777 12544  4288 32192 25632 28832
2778 11840  3648 32192 25632 28832
2779 10880  3520 32192 25632 28832
2780 11392  3584 32288 25632 28960
2781 10688  3712 32288 25632 28960
2782 10368  3456 32288 25632 28960
2783 10560  3264 32288 25632 28960
2784 10624  3328 32288 25632 28960
2785  9856  2944 32288 25632 28960
2786  9984  3392 32288 25632 28960
2787  9344  3328 32288 25632 28960
2788  9792  3136 32288 25632 28960
2789  9472  2944 32288 25632 28960
2790  9600  3200 32368 25568 28928
2791  9792  2880 32368 25568 28928
2792  9536  3520 32368 25568 28928
2793  9600  3904 32368 25568 28928
2794  8704  3456 32368 25568 28928
2795  8832  3712 32368 25568 28928
2796  8064  4032 32368 25568 28928
2797  8256  3968 32368 25568 28928
2798  7040  4032 32368 25568 28928
2799  6656  3968 32368 25568 28928
2800  6016  4224 32384 25552 28912
2801  6016  4032 32384 25552 28912
2802  5632  4032 32384 25552 28912
2803  5568  4224 32384 25552 28912
2804  6336  4608 32384 25552 28912
2805  6272  5056 32384 25552 28912
2806  8576  4608 32384 25552 28912
2807 16704  4864 32384 25552 28912
2808 22464  4480 32384 25552 28912
2809 16000  5376 32384 25552 28912
2810  4672  6720 32384 25552 28912
2811   512  6592 32384 25552 28912
2812  2112  6528 32384 25552 28912
2813  1984  6592 32384 25552 28912
2814  3776  6848 32384 25552 28912
2815  5632  6848 32384 25552 28912
2816  6080  7104 32384 25552 28912
2817  5824  7104 32384 25552 28912
2818  5760  7616 32384 25552 28912
2819  6528  8320 32384 25552 28912
2820  6144  8704 32384 25632 28928
2821  6336  8768 32384 25632 28928
2822  6720  8960 32384 25632 28928
2823  6080  8832 32384 25632 28928
2824  6848  9600 32384 25632 28928
2825  7040  9920 32384 25632 28928
2826  6848 10240 32384 25632 28928
2827  7104 10432 32384 25632 28928
2828  7232 10752 32384 25632 28928
2829  7424 11264 32384 25632 28928
2830  7488 11200 32368 25632 28912
2831  8064 11520 32368 25632 28912
2832  8192 12096 32368 25632 28912
2833  8832 12352 32368 25632 28912
2834  8960 12608 32368 25632 28912
2835  9792 13184 32368 25632 28912
2836 10112 13568 32368 25632 28912
2837  9792 13440 32368 25632 28912
2838 10432 13952 32368 25632 28912
2839 10112 13760 32368 25632 28912
2840 10752 14528 32416 25600 28944
2841 10688 14848 32416 25600 28944
2842 10880 15296 32416 25600 28944
2843 10880 15488 32416 25600 28944
2844 10240 15808 32416 25600 28944
2845  9600 15808 32416 25600 28944
2846  9408 16384 32416 25600 28944
2847  8768 16512 32416 25600 28944
2848  8256 16896 32416 25600 28944
2849  7808 16896 32416 25600 28944
2850  8448 17856 32576 25536 28928
2851  8064 18112 32576 25536 28928
2852  7936 18560 32576 25536 28928
2853  8384 18496 32576 25536 28928
2854  8384 18816 32576 25536 28928
2855  9216 19520 32576 25536 28928
2856  9536 18880 32576 25536 28928
2857  9792 19968 32576 25536 28928
2858  9408 20608 32576 25536 28928
2859  9984 21440 32576 25536 28928
2860 10048 22080 32528 25520 28928
2861  9920 22464 32528 25520 28928
2862  9664 22592 32528 25520 28928
2863  9408 22528 32528 25520 28928
2864  9920 22656 32528 25520 28928
2865 10560 23360 32528 25520 28928
2866 10496 23744 32528 25520 28928
2867 11008 24064 32528 25520 28928
2868 10944 24256 32528 25520 28928
2869 10944 24512 32528 25520 28928
2870 11712 24640 32528 25520 28928
2871 13120 25152 32528 25520 28928
2872 13248 25344 32528 25520 28928
2873 12224 25536 32528 25520 28928
2874 11584 26112 32528 25520 28928
2875 12736 26624 32528 25520 28928
2876 12928 26880 32528 25520 28928
2877 12672 27136 32528 25520 28928
2878 12352 27392 32528 25520 28928
2879 12288 27904 32528 25520 28928
2880 12160 28288 32512 25488 28896
2881 12672 28544 32512 25488 28896
2882 13120 29184 32512 25488 28896
2883 13312 29376 32512 25488 28896
2884 12544 29312 32512 25488 28896
2885 12928 29568 32512 25488 28896
2886 14592 30208 32512 25488 28896
2887 20224 29504 32512 25488 28896
2888 28416 30208 32512 25488 28896
2889 31040 30336 32512 25488 28896
2890 18496 30400 32448 25600 28896
2891  9344 29568 32448 25600 28896
2892  9664 29568 32448 25600 28896
2893 11904 30016 32448 25600 28896
2894 12800 29632 32448 25600 28896
2895 14784 29824 32448 25600 28896
2896 17536 30784 32448 25600 28896
2897 18112 31104 32448 25600 28896
2898 18624 31680 32448 25600 28896
2899 18496 31936 32448 25600 28896
2900 18368 31744 32448 25552 28864
2901 18240 31360 32448 25552 28864
2902 19328 32000 32448 25552 28864
2903 19520 32192 32448 25552 28864
2904 19904 32448 32448 25552 28864
2905 20160 32320 32448 25552 28864
2906 20032 32640 32448 25552 28864
2907 19968 33088 32448 25552 28864
2908 20864 33216 32448 25552 28864
2909 20480 33472 32448 25552 28864
2910 20864 33536 32448 25552 28864
2911 21248 33408 32448 25552 28864
2912 21632 33664 32448 25552 28864
2913 22720 34112 32448 25552 28864
2914 22656 34496 32448 25552 28864
2915 22976 34560 32448 25552 28864
2916 24256 35264 32448 25552 28864
2917 23936 34880 32448 25552 28864
2918 24640 35584 32448 25552 28864
2919 24896 35456 32448 25552 28864
2920 25152 35776 32480 25520 28848
2921 25536 36224 32480 25520 28848
2922 25216 36096 32480 25520 28848
2923 25792 36544 32480 25520 28848
2924 25600 36928 32480 25520 28848
2925 25024 37312 32480 25520 28848
2926 24640 37120 32480 25520 28848
2927 23872 36800 32480 25520 28848
2928 23360 37248 32480 25520 28848
2929 23232 37440 32480 25520 28848
2930 23232 38080 32672 25504 28896
2931 23232 37888 32672 25504 28896
2932 23552 38016 32672 25504 28896
2933 23424 37888 32672 25504 28896
2934 23616 38464 32672 25504 28896
2935 23616 38272 32672 25504 28896
2936 24064 38400 32672 25504 28896
2937 24128 38144 32672 25504 28896
2938 24576 38784 32672 25504 28896
2939 24704 38976 32672 25504 28896
2940 24768 39168 32496 25600 28912
2941 25088 39488 32496 25600 28912
2942 25408 39424 32496 25600 28912
2943 25984 39680 32496 25600 28912
2944 25216 39680 32496 25600 28912
2945 25536 39936 32496 25600 28912
2946 25216 39808 32496 25600 28912
2947 25408 40128 32496 25600 28912
2948 25728 40192 32496 25600 28912
2949 27072 40768 32496 25600 28912
2950 26688 40704 32480 25536 28944
2951 26688 40448 32480 25536 28944
2952 27392 40704 32480 25536 28944
2953 27328 40640 32480 25536 28944
2954 28160 40448 32480 25536 28944
2955 29184 41216 32480 25536 28944
2956 28928 41024 32480 25536 28944
2957 28160 40384 32480 25536 28944
2958 28096 40384 32480 25536 28944
2959 29184 40768 32480 25536 28944
2960 28288 40768 32640 25504 28960
2961 28032 40576 32640 25504 28960
2962 28032 40576 32640 25504 28960
2963 27840 40576 32640 25504 28960
2964 28224 40896 32640 25504 28960
2965 28480 40640 32640 25504 28960
2966 28544 40448 32640 25504 28960
2967 28224 40640 32640 25504 28960
2968 28800 40768 32640 25504 28960
2969 29696 41152 32640 25504 28960
2970 32192 41088 32640 25504 28960
2971 39936 40960 32640 25504 28960
2972 47232 41152 32640 25504 28960
2973 39552 41792 32640 25504 28960
2974 27200 42112 32640 25504 28960
2975 21760 42304 32640 25504 28960
2976 24320 41856 32640 25504 28960
2977 25536 41792 32640 25504 28960
2978 27328 41856 32640 25504 28960
2979 30464 41984 32640 25504 28960
2980 31936 42112 32544 25520 28928
2981 31488 42112 32544 25520 28928
2982 32192 41728 32544 25520 28928
2983 32256 42240 32544 25520 28928
2984 32768 42368 32544 25520 28928
2985 33472 42368 32544 25520 28928
2986 33728 42112 32544 25520 28928
2987 33792 41920 32544 25520 28928
2988 34048 42112 32544 25520 28928
2989 34368 42048 32544 25520 28928
2990 34496 42112 32624 25536 28928
2991 34688 41792 32624 25536 28928
2992 34816 41600 32624 25536 28928
2993 35520 41984 32624 25536 28928
2994 35520 41856 32624 25536 28928
2995 36224 41856 32624 25536 28928
2996 37056 42048 32624 25536 28928
2997 36800 41600 32624 25536 28928
2998 37632 41792 32624 25536 28928
2999 37888 41472 32624 25536 28928
3000 38400 41792 32512 25536 28896
3001 38656 42112 32512 25536 28896
3002 39104 41792 32512 25536 28896
3003 38592 41600 32512 25536 28896
3004 39616 42304 32512 25536 28896
3005 39168 42048 32512 25536 28896
3006 38592 42048 32512 25536 28896
3007 38400 42112 32512 25536 28896
3008 37312 41728 32512 25536 28896
3009 36736 41728 32512 25536 28896
3010 36096 41728 32512 25536 28896
3011 35840 41856 32512 25536 28896
3012 35392 41856 32512 25536 28896
3013 35264 41984 32512 25536 28896
3014 34944 41728 32512 25536 28896
3015 34944 41792 32512 25536 28896
3016 34880 41536 32512 25536 28896
3017 35072 41536 32512 25536 28896
3018 35520 41344 32512 25536 28896
3019 35904 42240 32512 25536 28896
3020 36032 42112 32384 25536 28880
3021 36288 41792 32384 25536 28880
3022 36160 41792 32384 25536 28880
3023 35712 41600 32384 25536 28880
3024 35968 41600 32384 25536 28880
3025 36288 41408 32384 25536 28880
3026 35840 40704 32384 25536 28880
3027 36928 41600 32384 25536 28880
3028 36288 41344 32384 25536 28880
3029 37312 41408 32384 25536 28880
3030 36672 40896 32416 25616 28944
3031 36160 41088 32416 25616 28944
3032 36864 40896 32416 25616 28944
3033 36928 40448 32416 25616 28944
3034 36992 40512 32416 25616 28944
3035 36544 40640 32416 25616 28944
3036 36992 40576 32416 25616 28944
3037 36352 40448 32416 25616 28944
3038 37376 40768 32416 25616 28944
3039 37312 40320 32416 25616 28944
3040 38336 40384 32640 25472 28928
3041 38336 40384 32640 25472 28928
3042 38720 40192 32640 25472 28928
3043 37312 40256 32640 25472 28928
3044 38208 39872 32640 25472 28928
3045 37568 40576 32640 25472 28928
3046 36992 39936 32640 25472 28928
3047 36800 40320 32640 25472 28928
3048 37632 40448 32640 25472 28928
3049 36480 40128 32640 25472 28928
3050 36544 40064 32528 25568 28896
3051 36544 40192 32528 25568 28896
3052 36544 40064 32528 25568 28896
3053 36672 40128 32528 25568 28896
3054 37568 40512 32528 25568 28896
3055 39552 40192 32528 25568 28896
3056 47488 40512 32528 25568 28896
3057 54848 40512 32528 25568 28896
3058 46848 40768 32528 25568 28896
3059 32960 40960 32528 25568 28896
3060 27712 40768 32528 25552 28880
3061 30016 40704 32528 25552 28880
3062 31296 40192 32528 25552 28880
3063 34048 40192 32528 25552 28880
3064 36736 40512 32528 25552 28880
3065 38016 40128 32528 25552 28880
3066 38272 40448 32528 25552 28880
3067 39104 40000 32528 25552 28880
3068 38592 39872 32528 25552 28880
3069 39040 39680 32528 25552 28880
3070 38464 39232 32528 25552 28880
3071 38784 39360 32528 25552 28880
3072 39168 39168 32528 25552 28880
3073 40000 39872 32528 25552 28880
3074 39680 39424 32528 25552 28880
3075 40000 39616 32528 25552 28880
3076 40000 39552 32528 25552 28880
3077 40256 39488 32528 25552 28880
3078 39616 39040 32528 25552 28880
3079 40704 39424 32528 25552 28880
3080 40960 39168 32288 25568 28832
3081 40448 38656 32288 25568 28832
3082 41152 39040 32288 25568 28832
3083 42112 39168 32288 25568 28832
3084 42368 38720 32288 25568 28832
3085 42048 38272 32288 25568 28832
3086 42752 38784 32288 25568 28832
3087 42880 38784 32288 25568 28832
3088 43712 38784 32288 25568 28832
3089 42816 38976 32288 25568 28832
3090 42944 38720 32432 25536 28880
3091 42304 38528 32432 25536 28880
3092 41792 38464 32432 25536 28880
3093 41664 38720 32432 25536 28880
3094 40704 38208 32432 25536 28880
3095 40064 38400 32432 25536 28880
3096 38848 38336 32432 25536 28880
3097 39296 38336 32432 25536 28880
3098 38464 38208 32432 25536 28880
3099 38464 37888 32432 25536 28880
3100 38848 38272 32400 25504 28848
3101 38080 37568 32400 25504 28848
3102 38144 37696 32400 25504 28848
3103 38784 38656 32400 25504 28848
3104 39040 38912 32400 25504 28848
3105 38784 39040 32400 25504 28848
3106 39296 39168 32400 25504 28848
3107 39232 39104 32400 25504 28848
3108 39296 39040 32400 25504 28848
3109 39424 39040 32400 25504 28848
3110 39488 39040 32400 25504 28848
3111 39616 39168 32400 25504 28848
3112 39232 38912 32400 25504 28848
3113 38720 38592 32400 25504 28848
3114 39360 38976 32400 25504 28848
3115 39360 39040 32400 25504 28848
3116 39296 38592 32400 25504 28848
3117 39040 38784 32400 25504 28848
3118 38464 38272 32400 25504 28848
3119 38912 38720 32400 25504 28848
3120 38976 38400 32288 25568 28800
3121 37888 38080 32288 25568 28800
3122 38016 38016 32288 25568 28800
3123 38976 38080 32288 25568 28800
3124 38400 37632 32288 25568 28800
3125 38784 37888 32288 25568 28800
3126 38720 37632 32288 25568 28800
3127 37760 37440 32288 25568 28800
3128 38656 37824 32288 25568 28800
3129 39360 37824 32288 25568 28800
3130 39936 37440 32368 25600 28912
3131 39488 37120 32368 25600 28912
3132 39936 37568 32368 25600 28912
3133 39040 37504 32368 25600 28912
3134 39552 37248 32368 25600 28912
3135 39232 37632 32368 25600 28912
3136 39616 37248 32368 25600 28912
3137 38144 36928 32368 25600 28912
3138 37888 36928 32368 25600 28912
3139 38144 37376 32368 25600 28912
3140 37632 37312 32528 25568 28928
3141 37440 37056 32528 25568 28928
3142 37760 36928 32528 25568 28928
3143 37760 36480 32528 25568 28928
3144 37760 36800 32528 25568 28928
3145 42304 36928 32528 25568 28928
3146 49664 36864 32528 25568 28928
3147 55424 36736 32528 25568 28928
3148 44608 36992 32528 25568 28928
3149 33472 37440 32528 25568 28928
3150 30720 37184 32384 25600 28864
3151 34048 36992 32384 25600 28864
3152 34240 36928 32384 25600 28864
3153 35968 36672 32384 25600 28864
3154 38016 36992 32384 25600 28864
3155 38656 36992 32384 25600 28864
3156 38464 36800 32384 25600 28864
3157 39040 37376 32384 25600 28864
3158 38912 36672 32384 25600 28864
3159 39488 36736 32384 25600 28864
3160 39360 36736 32464 25536 28880
3161 39744 36736 32464 25536 28880
3162 39680 36416 32464 25536 28880
3163 39104 36288 32464 25536 28880
3164 39424 36224 32464 25536 28880
3165 39936 36352 32464 25536 28880
3166 39488 36352 32464 25536 28880
3167 39488 35968 32464 25536 28880
3168 40000 36224 32464 25536 28880
3169 40192 36160 32464 25536 28880
3170 40256 36032 32464 25536 28880
3171 40576 36032 32464 25536 28880
3172 40896 36288 32464 25536 28880
3173 41728 36544 32464 25536 28880
3174 41792 36352 32464 25536 28880
3175 41536 36416 32464 25536 28880
3176 41664 35904 32464 25536 28880
3177 42240 36352 32464 25536 28880
3178 42688 36288 32464 25536 28880
3179 42304 36096 32464 25536 28880
3180 42304 36096 32528 25504 28912
3181 42240 35904 32528 25504 28912
3182 41984 35584 32528 25504 28912
3183 41280 35776 32528 25504 28912
3184 41024 35392 32528 25504 28912
3185 39808 35200 32528 25504 28912
3186 39168 35264 32528 25504 28912
3187 38656 35136 32528 25504 28912
3188 39040 35520 32528 25504 28912
3189 37824 34880 32528 25504 28912
3190 37760 34816 32576 25440 28864
3191 38272 35264 32576 25440 28864
3192 38208 35200 32576 25440 28864
3193 38528 35200 32576 25440 28864
3194 38464 35200 32576 25440 28864
3195 38464 35008 32576 25440 28864
3196 38144 35008 32576 25440 28864
3197 37952 34688 32576 25440 28864
3198 37888 34496 32576 25440 28864
3199 37888 34624 32576 25440 28864
3200 38144 34688 32560 25488 28880
3201 37696 34560 32560 25488 28880
3202 36928 34496 32560 25488 28880
3203 36928 34240 32560 25488 28880
3204 37248 34240 32560 25488 28880
3205 37440 34176 32560 25488 28880
3206 36864 34368 32560 25488 28880
3207 36544 34048 32560 25488 28880
3208 36736 34304 32560 25488 28880
3209 36800 34304 32560 25488 28880
3210 36544 33856 32544 25552 28880
3211 36032 33984 32544 25552 28880
3212 36224 34176 32544 25552 28880
3213 36800 33984 32544 25552 28880
3214 37568 34176 32544 25552 28880
3215 36160 33920 32544 25552 28880
3216 35904 33600 32544 25552 28880
3217 35776 33600 32544 25552 28880
3218 36032 33408 32544 25552 28880
3219 35904 34112 32544 25552 28880
3220 36224 33600 32640 25504 28928
3221 35072 33472 32640 25504 28928
3222 34432 33088 32640 25504 28928
3223 34112 33216 32640 25504 28928
3224 34240 33216 32640 25504 28928
3225 34496 33664 32640 25504 28928
3226 33664 32768 32640 25504 28928
3227 34944 33152 32640 25504 28928
3228 34112 32960 32640 25504 28928
3229 36544 32384 32640 25504 28928
3230 43968 32064 32640 25504 28928
3231 50624 32064 32640 25504 28928
3232 45696 32256 32640 25504 28928
3233 34368 32640 32640 25504 28928
3234 28416 32064 32640 25504 28928
3235 30528 31936 32640 25504 28928
3236 31296 32384 32640 25504 28928
3237 32128 32000 32640 25504 28928
3238 33024 32000 32640 25504 28928
3239 34432 31936 32640 25504 28928
3240 34752 32384 32480 25520 28880
3241 34112 31808 32480 25520 28880
3242 34432 31872 32480 25520 28880
3243 34304 32000 32480 25520 28880
3244 34496 31936 32480 25520 28880
3245 34304 32192 32480 25520 28880
3246 34944 32192 32480 25520 28880
3247 34752 32384 32480 25520 28880
3248 35008 32704 32480 25520 28880
3249 35008 32448 32480 25520 28880
3250 34944 32768 32528 25568 28896
3251 35456 32512 32528 25568 28896
3252 35968 32384 32528 25568 28896
3253 36160 32704 32528 25568 28896
3254 35904 32384 32528 25568 28896
3255 36224 31872 32528 25568 28896
3256 36160 32192 32528 25568 28896
3257 36224 32256 32528 25568 28896
3258 36224 33088 32528 25568 28896
3259 37248 33280 32528 25568 28896
3260 37760 33472 32736 25504 28864
3261 37632 32896 32736 25504 28864
3262 36992 32576 32736 25504 28864
3263 37760 32320 32736 25504 28864
3264 38144 32832 32736 25504 28864
3265 37248 32704 32736 25504 28864
3266 37184 32384 32736 25504 28864
3267 36416 32320 32736 25504 28864
3268 35648 32128 32736 25504 28864
3269 34432 31872 32736 25504 28864
3270 34368 31936 32736 25504 28864
3271 33728 32000 32736 25504 28864
3272 33472 32448 32736 25504 28864
3273 32896 32000 32736 25504 28864
3274 32960 31808 32736 25504 28864
3275 33472 32256 32736 25504 28864
3276 33216 32064 32736 25504 28864
3277 33088 32128 32736 25504 28864
3278 32832 31360 32736 25504 28864
3279 33536 31552 32736 25504 28864
3280 33088 31488 32576 25504 28896
3281 32960 31616 32576 25504 28896
3282 33600 31936 32576 25504 28896
3283 33088 31552 32576 25504 28896
3284 33216 31936 32576 25504 28896
3285 32896 31488 32576 25504 28896
3286 32704 31232 32576 25504 28896
3287 33152 31296 32576 25504 28896
3288 32576 31232 32576 25504 28896
3289 33472 31808 32576 25504 28896
3290 33088 31616 32560 25536 28928
3291 32896 31296 32560 25536 28928
3292 33024 31424 32560 25536 28928
3293 32064 30912 32560 25536 28928
3294 32576 31296 32560 25536 28928
3295 32576 31360 32560 25536 28928
3296 32064 30784 32560 25536 28928
3297 32256 30976 32560 25536 28928
3298 31488 30784 32560 25536 28928
3299 32320 31104 32560 25536 28928
3300 32512 31040 32608 25504 29056
3301 33280 30784 32608 25504 29056
3302 32768 30848 32608 25504 29056
3303 31936 30784 32608 25504 29056
3304 32192 30976 32608 25504 29056
3305 33280 31296 32608 25504 29056
3306 31616 31040 32608 25504 29056
3307 32000 31104 32608 25504 29056
3308 31616 31104 32608 25504 29056
3309 31296 30784 32608 25504 29056
3310 31040 30144 32560 25536 28992
3311 30400 30016 32560 25536 28992
3312 30912 30528 32560 25536 28992
3313 30848 30528 32560 25536 28992
3314 30336 30656 32560 25536 28992
3315 30656 30464 32560 25536 28992
3316 34816 30080 32560 25536 28992
3317 43136 29888 32560 25536 28992
3318 48704 30080 32560 25536 28992
3319 37504 30464 32560 25536 28992
3320 26624 30784 32640 25536 28960
3321 23552 30528 32640 25536 28960
3322 26112 30400 32640 25536 28960
3323 27648 30016 32640 25536 28960
3324 28672 30016 32640 25536 28960
3325 31680 29632 32640 25536 28960
3326 31616 29760 32640 25536 28960
3327 32384 29888 32640 25536 28960
3328 32512 29376 32640 25536 28960
3329 32640 29632 32640 25536 28960
3330 32064 29568 32640 25536 28960
3331 32320 29696 32640 25536 28960
3332 32640 29760 32640 25536 28960
3333 32704 29824 32640 25536 28960
3334 32640 29824 32640 25536 28960
3335 32960 29504 32640 25536 28960
3336 32512 29376 32640 25536 28960
3337 32704 29568 32640 25536 28960
3338 33024 29824 32640 25536 28960
3339 33344 29760 32640 25536 28960
3340 33152 29632 32608 25504 29024
3341 33536 29504 32608 25504 29024
3342 34304 29888 32608 25504 29024
3343 33728 29120 32608 25504 29024
3344 35008 29376 32608 25504 29024
3345 34880 29248 32608 25504 29024
3346 35328 28864 32608 25504 29024
3347 35328 29312 32608 25504 29024
3348 35968 29568 32608 25504 29024
3349 35456 29376 32608 25504 29024
3350 35200 29056 32576 25552 28976
3351 35008 28672 32576 25552 28976
3352 34496 29056 32576 25552 28976
3353 34560 28928 32576 25552 28976
3354 33472 28928 32576 25552 28976
3355 32384 29056 32576 25552 28976
3356 32256 29248 32576 25552 28976
3357 30592 28480 32576 25552 28976
3358 30400 28736 32576 25552 28976
3359 30400 28928 32576 25552 28976
3360 30656 28992 32496 25600 28928
3361 30208 29120 32496 25600 28928
3362 30272 29184 32496 25600 28928
3363 30336 29184 32496 25600 28928
