0 21312 25664 31536 29408 30816
1 20864 27456 31536 29408 30816
2 21312 27712 31536 29408 30816
3 21376 26624 31536 29408 30816
4 21440 27136 31536 29408 30816
5 20544 26944 31536 29408 30816
6 20800 27584 31536 29408 30816
7 22208 28864 31536 29408 30816
8 20544 28224 31536 29408 30816
9 20800 28928 31536 29408 30816
10 21120 28608 30976 27664 29856
11 21760 28672 30976 27664 29856
12 21184 28800 30976 27664 29856
13 24064 28608 30976 27664 29856
14 30976 29248 30976 27664 29856
15 41344 29056 30976 27664 29856
16 42496 29760 30976 27664 29856
17 25408 30400 30976 27664 29856
18 18496 30144 30976 27664 29856
19 14784 29504 30976 27664 29856
20 21632 30592 30976 27664 29856
21 24704 30272 30976 27664 29856
22 25664 31232 30976 27664 29856
23 24640 31552 30976 27664 29856
24 24512 31168 30976 27664 29856
25 24064 31040 30976 27664 29856
26 23744 30976 30976 27664 29856
27 25024 31744 30976 27664 29856
28 25344 31040 30976 27664 29856
29 25472 31360 30976 27664 29856
30 26048 31104 30368 25952 28992
31 26432 32000 30368 25952 28992
32 26176 31296 30368 25952 28992
33 26816 32832 30368 25952 28992
34 27648 32896 30368 25952 28992
35 27648 31424 30368 25952 28992
36 27776 31680 30368 25952 28992
37 29056 32192 30368 25952 28992
38 29440 32768 30368 25952 28992
39 30528 32064 30368 25952 28992
40 30272 32128 30336 25936 28880
41 30656 31744 30336 25936 28880
42 30528 31936 30336 25936 28880
43 31040 32128 30336 25936 28880
44 30464 32128 30336 25936 28880
45 29760 32128 30336 25936 28880
46 29312 32256 30336 25936 28880
47 29120 32960 30336 25936 28880
48 27904 32896 30336 25936 28880
49 27264 32896 30336 25936 28880
50 26304 32704 30304 25952 28880
51 26048 32704 30304 25952 28880
52 25536 33024 30304 25952 28880
53 24960 32640 30304 25952 28880
54 25472 32704 30304 25952 28880
55 24640 33408 30304 25952 28880
56 25472 33344 30304 25952 28880
57 25536 33536 30304 25952 28880
58 25664 33728 30304 25952 28880
59 25792 33280 30304 25952 28880
60 25792 33472 30304 25952 28880
61 25536 33536 30304 25952 28880
62 25856 33344 30304 25952 28880
63 26560 33792 30304 25952 28880
64 26816 34240 30304 25952 28880
65 26368 33920 30304 25952 28880
66 26368 34048 30304 25952 28880
67 27008 33984 30304 25952 28880
68 27136 33920 30304 25952 28880
69 26752 33984 30304 25952 28880
70 28032 34176 30112 26048 28896
71 27584 33728 30112 26048 28896
72 28608 34560 30112 26048 28896
73 27392 34048 30112 26048 28896
74 27456 34368 30112 26048 28896
75 27008 34368 30112 26048 28896
76 27648 34880 30112 26048 28896
77 27904 35136 30112 26048 28896
78 27712 35072 30112 26048 28896
79 26496 35264 30112 26048 28896
80 27008 34624 30208 25968 28912
81 26944 34560 30208 25968 28912
82 27584 34816 30208 25968 28912
83 27008 34880 30208 25968 28912
84 27200 34496 30208 25968 28912
85 30208 35008 30208 25968 28912
86 37376 35264 30208 25968 28912
87 46656 35200 30208 25968 28912
88 47296 35840 30208 25968 28912
89 30976 35456 30208 25968 28912
90 24000 36224 30272 25968 28928
91 20288 36224 30272 25968 28928
92 26112 36096 30272 25968 28928
93 29568 35648 30272 25968 28928
94 29888 36096 30272 25968 28928
95 29440 36288 30272 25968 28928
96 29248 35840 30272 25968 28928
97 30080 36288 30272 25968 28928
98 28864 36352 30272 25968 28928
99 30272 36224 30272 25968 28928
100 29888 36992 30240 26016 28896
101 31104 37504 30240 26016 28896
102 30720 37248 30240 26016 28896
103 30400 37056 30240 26016 28896
104 30976 36480 30240 26016 28896
105 31424 36608 30240 26016 28896
106 31872 36096 30240 26016 28896
107 32576 35712 30240 26016 28896
108 32896 35584 30240 26016 28896
109 33792 35648 30240 26016 28896
110 33536 35392 30128 26064 28864
111 34688 36096 30128 26064 28864
112 35392 35840 30128 26064 28864
113 34880 35840 30128 26064 28864
114 35072 35520 30128 26064 28864
115 35776 35008 30128 26064 28864
116 34432 34624 30128 26064 28864
117 34944 34432 30128 26064 28864
118 33920 33920 30128 26064 28864
119 33344 33728 30128 26064 28864
120 32960 33344 30128 26064 28864
121 31488 32896 30128 26064 28864
122 31040 32320 30128 26064 28864
123 30592 32256 30128 26064 28864
124 30848 31232 30128 26064 28864
125 30400 30208 30128 26064 28864
126 31104 29312 30128 26064 28864
127 30144 27520 30128 26064 28864
128 30272 26496 30128 26064 28864
129 30272 25600 30128 26064 28864
130 30400 25152 30128 26112 28832
131 30144 23616 30128 26112 28832
132 30784 23872 30128 26112 28832
133 30912 22848 30128 26112 28832
134 30784 22080 30128 26112 28832
135 32128 23360 30128 26112 28832
136 31872 23296 30128 26112 28832
137 32448 22656 30128 26112 28832
138 32640 22848 30128 26112 28832
139 32768 22976 30128 26112 28832
140 32128 22784 30080 26144 28832
141 32128 22976 30080 26144 28832
142 31808 22656 30080 26144 28832
143 32512 23168 30080 26144 28832
144 32832 23040 30080 26144 28832
145 31872 22912 30080 26144 28832
146 31424 23424 30080 26144 28832
147 32640 24320 30080 26144 28832
148 32064 24576 30080 26144 28832
149 31616 24000 30080 26144 28832
150 32128 24256 30128 26096 28800
151 30976 24128 30128 26096 28800
152 30848 24576 30128 26096 28800
153 30464 24896 30128 26096 28800
154 29952 24640 30128 26096 28800
155 30400 24192 30128 26096 28800
156 30080 23936 30128 26096 28800
157 34560 24512 30128 26096 28800
158 44032 24896 30128 26096 28800
159 51328 25088 30128 26096 28800
160 47232 25472 30160 26128 28816
161 29376 25088 30160 26128 28816
162 24128 25664 30160 26128 28816
163 24320 25920 30160 26128 28816
164 30848 25792 30160 26128 28816
165 33984 26368 30160 26128 28816
166 32128 25984 30160 26128 28816
167 30976 25984 30160 26128 28816
168 31040 25856 30160 26128 28816
169 31296 26240 30160 26128 28816
170 31424 26944 30160 26128 28816
171 32448 27008 30160 26128 28816
172 31552 26752 30160 26128 28816
173 32448 26752 30160 26128 28816
174 32512 27136 30160 26128 28816
175 32704 26752 30160 26128 28816
176 32576 27456 30160 26128 28816
177 33280 26880 30160 26128 28816
178 33344 27456 30160 26128 28816
179 34112 27456 30160 26128 28816
180 33728 27008 30176 26208 28768
181 34176 25920 30176 26208 28768
182 35648 26240 30176 26208 28768
183 36224 26752 30176 26208 28768
184 34624 25152 30176 26208 28768
185 36544 26240 30176 26208 28768
186 37056 26368 30176 26208 28768
187 35840 26304 30176 26208 28768
188 35520 26240 30176 26208 28768
189 34624 25408 30176 26208 28768
190 33728 26112 30176 26112 28848
191 32832 25856 30176 26112 28848
192 31424 25728 30176 26112 28848
193 29312 24960 30176 26112 28848
194 29056 24576 30176 26112 28848
195 29504 26944 30176 26112 28848
196 30336 27392 30176 26112 28848
197 29952 27520 30176 26112 28848
198 29312 27520 30176 26112 28848
199 28800 27392 30176 26112 28848
200 29760 27648 30144 26096 28896
201 29376 27648 30144 26096 28896
202 29120 27904 30144 26096 28896
203 30016 27392 30144 26096 28896
204 29184 27328 30144 26096 28896
205 29248 27200 30144 26096 28896
206 29632 28096 30144 26096 28896
207 29696 28160 30144 26096 28896
208 29696 28096 30144 26096 28896
209 28224 27328 30144 26096 28896
210 29056 28032 30080 26112 28832
211 29632 27584 30080 26112 28832
212 30464 29120 30080 26112 28832
213 30592 29312 30080 26112 28832
214 30336 29120 30080 26112 28832
215 30848 29120 30080 26112 28832
216 30720 29120 30080 26112 28832
217 30912 28928 30080 26112 28832
218 30144 29312 30080 26112 28832
219 29440 28800 30080 26112 28832
220 30528 29184 30080 26112 28832
221 30784 29120 30080 26112 28832
222 29888 28608 30080 26112 28832
223 29696 29440 30080 26112 28832
224 29184 29376 30080 26112 28832
225 28544 29248 30080 26112 28832
226 29248 29312 30080 26112 28832
227 29184 29440 30080 26112 28832
228 29632 30144 30080 26112 28832
229 30592 30080 30080 26112 28832
230 35712 29056 30128 26048 28880
231 46080 29312 30128 26048 28880
232 51648 29376 30128 26048 28880
233 42240 30208 30128 26048 28880
234 27008 30016 30128 26048 28880
235 20352 29824 30128 26048 28880
236 24960 29504 30128 26048 28880
237 31040 30336 30128 26048 28880
238 32320 28992 30128 26048 28880
239 30976 29376 30128 26048 28880
240 30016 29120 30128 26016 28928
241 31232 30464 30128 26016 28928
242 31488 30784 30128 26016 28928
243 31552 31424 30128 26016 28928
244 31616 31616 30128 26016 28928
245 31680 32192 30128 26016 28928
246 31808 32448 30128 26016 28928
247 32896 31936 30128 26016 28928
248 32768 31936 30128 26016 28928
249 32960 31744 30128 26016 28928
250 33472 31744 30176 26080 28896
251 33408 31296 30176 26080 28896
252 34048 31424 30176 26080 28896
253 34496 30656 30176 26080 28896
254 34880 30848 30176 26080 28896
255 35520 31168 30176 26080 28896
256 35904 31168 30176 26080 28896
257 37056 31552 30176 26080 28896
258 36928 31168 30176 26080 28896
259 36480 31424 30176 26080 28896
260 36608 31168 30176 26080 28864
261 35776 31168 30176 26080 28864
262 35392 31616 30176 26080 28864
263 34432 31744 30176 26080 28864
264 32960 31360 30176 26080 28864
265 32384 31552 30176 26080 28864
266 31616 31552 30176 26080 28864
267 31488 31616 30176 26080 28864
268 29696 31616 30176 26080 28864
269 30144 32064 30176 26080 28864
270 30144 31872 30176 26096 28864
271 29888 32064 30176 26096 28864
272 30080 32192 30176 26096 28864
273 29440 32000 30176 26096 28864
274 29312 31808 30176 26096 28864
275 29440 31360 30176 26096 28864
276 29376 31872 30176 26096 28864
277 28608 30720 30176 26096 28864
278 27904 30272 30176 26096 28864
279 30208 31744 30176 26096 28864
280 30592 31360 30176 26096 28864
281 29952 31104 30176 26096 28864
282 29312 30400 30176 26096 28864
283 29696 30912 30176 26096 28864
284 29952 29696 30176 26096 28864
285 30656 30016 30176 26096 28864
286 30656 29632 30176 26096 28864
287 30080 29568 30176 26096 28864
288 29696 29568 30176 26096 28864
289 30016 29312 30176 26096 28864
290 29760 29184 30112 26048 28896
291 28736 29184 30112 26048 28896
292 28864 29696 30112 26048 28896
293 28992 28928 30112 26048 28896
294 29696 29504 30112 26048 28896
295 29120 29888 30112 26048 28896
296 28480 29568 30112 26048 28896
297 28224 28992 30112 26048 28896
298 28864 30464 30112 26048 28896
299 29632 30336 30112 26048 28896
300 28480 30016 30096 26032 28880
301 29120 30016 30096 26032 28880
302 29248 29504 30096 26032 28880
303 36416 29696 30096 26032 28880
304 47040 30144 30096 26032 28880
305 51264 29888 30096 26032 28880
306 36416 29504 30096 26032 28880
307 25536 30528 30096 26032 28880
308 19456 30656 30096 26032 28880
309 26816 31040 30096 26032 28880
310 32448 30784 30160 26016 28928
311 32128 30720 30160 26016 28928
312 30976 30592 30160 26016 28928
313 30400 31552 30160 26016 28928
314 31232 31552 30160 26016 28928
315 30656 30784 30160 26016 28928
316 30720 31360 30160 26016 28928
317 30272 30016 30160 26016 28928
318 30976 30144 30160 26016 28928
319 32192 31104 30160 26016 28928
320 31616 30016 30160 26016 28928
321 33536 30784 30160 26016 28928
322 33024 30464 30160 26016 28928
323 33088 32512 30160 26016 28928
324 34304 33920 30160 26016 28928
325 34112 32768 30160 26016 28928
326 34432 31168 30160 26016 28928
327 35584 32256 30160 26016 28928
328 34560 30976 30160 26016 28928
329 35584 31552 30160 26016 28928
330 36352 32576 29984 26112 28896
331 36032 31872 29984 26112 28896
332 36032 31488 29984 26112 28896
333 35840 31552 29984 26112 28896
334 35136 31232 29984 26112 28896
335 34688 31296 29984 26112 28896
336 32320 30848 29984 26112 28896
337 32640 32384 29984 26112 28896
338 32256 32384 29984 26112 28896
339 31616 31872 29984 26112 28896
340 30464 32256 30048 26080 28960
341 29568 32384 30048 26080 28960
342 28864 32256 30048 26080 28960
343 29056 31936 30048 26080 28960
344 29952 32576 30048 26080 28960
345 28928 32320 30048 26080 28960
346 28992 32704 30048 26080 28960
347 29952 32128 30048 26080 28960
348 29504 33088 30048 26080 28960
349 29312 32704 30048 26080 28960
350 29184 32960 29952 26064 29008
351 29248 32960 29952 26064 29008
352 29888 32704 29952 26064 29008
353 29440 33152 29952 26064 29008
354 29568 32640 29952 26064 29008
355 29504 33024 29952 26064 29008
356 28928 32704 29952 26064 29008
357 28608 31872 29952 26064 29008
358 29632 32384 29952 26064 29008
359 29824 32704 29952 26064 29008
360 30528 33408 29952 25856 28832
361 30336 33472 29952 25856 28832
362 30464 33344 29952 25856 28832
363 30528 33216 29952 25856 28832
364 29504 33088 29952 25856 28832
365 30784 32576 29952 25856 28832
366 30336 32896 29952 25856 28832
367 30336 32832 29952 25856 28832
368 29312 32704 29952 25856 28832
369 28864 32384 29952 25856 28832
370 28544 33216 30096 25936 28880
371 28864 32768 30096 25936 28880
372 28416 31808 30096 25936 28880
373 29376 31680 30096 25936 28880
374 29376 30912 30096 25936 28880
375 34240 29824 30096 25936 28880
376 44288 29376 30096 25936 28880
377 51584 28544 30096 25936 28880
378 46464 28480 30096 25936 28880
379 28928 27584 30096 25936 28880
380 21696 27328 30096 25936 28880
381 23104 27456 30096 25936 28880
382 30464 28288 30096 25936 28880
383 34688 29312 30096 25936 28880
384 32128 28608 30096 25936 28880
385 30592 28160 30096 25936 28880
386 30336 27968 30096 25936 28880
387 31232 28096 30096 25936 28880
388 30400 28352 30096 25936 28880
389 30912 28544 30096 25936 28880
390 32000 29376 30144 25968 28944
391 32448 29696 30144 25968 28944
392 31744 28992 30144 25968 28944
393 31936 28736 30144 25968 28944
394 32320 28480 30144 25968 28944
395 32576 29248 30144 25968 28944
396 32192 29376 30144 25968 28944
397 33472 29120 30144 25968 28944
398 34048 28864 30144 25968 28944
399 33536 28160 30144 25968 28944
400 35200 29312 30432 26016 28960
401 36544 30336 30432 26016 28960
402 35968 30016 30432 26016 28960
403 32896 29312 30432 26016 28960
404 35072 30336 30432 26016 28960
405 36480 30272 30432 26016 28960
406 35264 30272 30432 26016 28960
407 34752 29888 30432 26016 28960
408 33536 29696 30432 26016 28960
409 32768 29824 30432 26016 28960
410 29568 29888 30416 25888 28944
411 27584 30208 30416 25888 28944
412 30464 30272 30416 25888 28944
413 31744 30080 30416 25888 28944
414 30656 29952 30416 25888 28944
415 27520 29504 30416 25888 28944
416 23808 29824 30416 25888 28944
417 28288 30528 30416 25888 28944
418 29888 29952 30416 25888 28944
419 30016 30080 30416 25888 28944
420 29376 30656 30464 25872 28944
421 27968 29760 30464 25872 28944
422 28672 28992 30464 25872 28944
423 28032 29952 30464 25872 28944
424 29248 31808 30464 25872 28944
425 24000 30400 30464 25872 28944
426 17728 28608 30464 25872 28944
427 27584 27904 30464 25872 28944
428 32576 29184 30464 25872 28944
429 32896 30464 30464 25872 28944
430 32576 31040 30464 25872 28944
431 32000 32832 30464 25872 28944
432 30272 32640 30464 25872 28944
433 28480 34944 30464 25872 28944
434 28608 36032 30464 25872 28944
435 28736 36800 30464 25872 28944
436 25728 36160 30464 25872 28944
437 26112 35840 30464 25872 28944
438 28032 35520 30464 25872 28944
439 30016 35904 30464 25872 28944
440 28608 35648 30592 25952 28896
441 30272 35840 30592 25952 28896
442 28288 34880 30592 25952 28896
443 27328 34432 30592 25952 28896
444 26560 33280 30592 25952 28896
445 28416 35776 30592 25952 28896
446 27136 34624 30592 25952 28896
447 33984 34560 30592 25952 28896
448 47296 33920 30592 25952 28896
449 50176 33920 30592 25952 28896
450 36352 32768 30528 25936 28752
451 26432 34048 30528 25936 28752
452 19904 34752 30528 25936 28752
453 25344 33920 30528 25936 28752
454 32512 34304 30528 25936 28752
455 33280 34240 30528 25936 28752
456 30528 33536 30528 25936 28752
457 28672 32384 30528 25936 28752
458 28800 32064 30528 25936 28752
459 30912 34624 30528 25936 28752
460 29184 34624 30496 26016 28688
461 31360 34112 30496 26016 28688
462 31936 33920 30496 26016 28688
463 32640 34048 30496 26016 28688
464 31424 32896 30496 26016 28688
465 31424 32704 30496 26016 28688
466 32704 32128 30496 26016 28688
467 32512 30976 30496 26016 28688
468 34752 30080 30496 26016 28688
469 33856 28480 30496 26016 28688
470 34432 27712 30400 25888 28672
471 33920 26880 30400 25888 28672
472 35584 28480 30400 25888 28672
473 35904 28992 30400 25888 28672
474 37568 29824 30400 25888 28672
475 37632 28800 30400 25888 28672
476 37312 29056 30400 25888 28672
477 35072 29184 30400 25888 28672
478 34624 28992 30400 25888 28672
479 34752 28928 30400 25888 28672
480 33728 29696 30400 25888 28672
481 34304 30272 30400 25888 28672
482 33088 29760 30400 25888 28672
483 32128 29248 30400 25888 28672
484 30400 28800 30400 25888 28672
485 31296 29120 30400 25888 28672
486 30080 29952 30400 25888 28672
487 29504 30272 30400 25888 28672
488 30144 30848 30400 25888 28672
489 29824 30784 30400 25888 28672
490 30144 30464 30512 25888 28672
491 27968 30464 30512 25888 28672
492 28800 31168 30512 25888 28672
493 29056 32960 30512 25888 28672
494 28608 33920 30512 25888 28672
495 27584 33920 30512 25888 28672
496 27904 35264 30512 25888 28672
497 28800 34688 30512 25888 28672
498 29632 34240 30512 25888 28672
499 28800 33152 30512 25888 28672
500 28288 33024 30656 25872 28784
501 26752 32192 30656 25872 28784
502 29184 33600 30656 25872 28784
503 27968 33216 30656 25872 28784
504 28736 32832 30656 25872 28784
505 27648 31104 30656 25872 28784
506 29120 33536 30656 25872 28784
507 26752 31744 30656 25872 28784
508 26688 31104 30656 25872 28784
509 27904 33088 30656 25872 28784
510 28672 32896 31360 25728 28160
511 27648 31872 31360 25728 28160
512 26240 31936 31360 25728 28160
513 25856 32128 31360 25728 28160
514 27392 33984 31360 25728 28160
515 27648 32448 31360 25728 28160
516 26048 32064 31360 25728 28160
517 26048 31424 31360 25728 28160
518 33728 32576 31360 25728 28160
519 42048 32896 31360 25728 28160
520 44928 32064 31584 25808 28256
521 33600 31936 31584 25808 28256
522 22912 31808 31584 25808 28256
523 18240 32128 31584 25808 28256
524 22656 31360 31584 25808 28256
525 26368 30912 31584 25808 28256
526 27840 32576 31584 25808 28256
527 28544 31232 31584 25808 28256
528 19072 30016 31584 25808 28256
529 26880 31936 31584 25808 28256
530 16384 34432 31152 25840 28240
531 24000 33216 31152 25840 28240
532 32512 32384 31152 25840 28240
533 25408 32384 31152 25840 28240
534 29376 32192 31152 25840 28240
535 29120 32128 31152 25840 28240
536 31552 32256 31152 25840 28240
537 30592 31232 31152 25840 28240
538 28096 30528 31152 25840 28240
539 31808 31808 31152 25840 28240
540 31552 31552 31152 25840 28240
541 31744 31232 31152 25840 28240
542 31616 32192 31152 25840 28240
543 30976 31872 31152 25840 28240
544 35072 32320 31152 25840 28240
545 33088 31040 31152 25840 28240
546 30464 31168 31152 25840 28240
547 37312 33728 31152 25840 28240
548 34112 31680 31152 25840 28240
549 32640 30528 31152 25840 28240
550 31424 31360 32800 26624 28544
551 33792 32960 32800 26624 28544
552 30976 32384 32800 26624 28544
553 33728 32448 32800 26624 28544
554 28928 31232 32800 26624 28544
555 26240 31936 32800 26624 28544
556 32384 32896 32800 26624 28544
557 28736 33664 32800 26624 28544
558 34880 32768 32800 26624 28544
559 32448 32384 32800 26624 28544
560 30208 31872 32592 26736 28480
561 30144 32448 32592 26736 28480
562 28032 31488 32592 26736 28480
563 25536 29888 32592 26736 28480
564 25600 30464 32592 26736 28480
565 27456 32448 32592 26736 28480
566 35008 33536 32592 26736 28480
567 31168 33152 32592 26736 28480
568 32640 32832 32592 26736 28480
569 31872 33024 32592 26736 28480
570 30720 32768 32032 26288 27952
571 27840 32768 32032 26288 27952
572 27264 32576 32032 26288 27952
573 25408 32192 32032 26288 27952
574 28672 33024 32032 26288 27952
575 27648 32960 32032 26288 27952
576 32576 33024 32032 26288 27952
577 27904 34048 32032 26288 27952
578 16384 35328 32032 26288 27952
579 30528 36608 32032 26288 27952
580 35328 36544 32032 26288 27952
581 33536 38080 32032 26288 27952
582 29376 36864 32032 26288 27952
583 31680 36416 32032 26288 27952
584 29568 35712 32032 26288 27952
585 28352 35648 32032 26288 27952
586 18048 34496 32032 26288 27952
587 24832 33984 32032 26288 27952
588 33280 34432 32032 26288 27952
589 39232 33728 32032 26288 27952
590 46528 34560 31648 26272 28000
591 48640 34560 31648 26272 28000
592 36992 36224 31648 26272 28000
593 25280 35008 31648 26272 28000
594 20608 34624 31648 26272 28000
595 28032 33728 31648 26272 28000
596 29312 32128 31648 26272 28000
597 30400 33792 31648 26272 28000
598 31872 33472 31648 26272 28000
599 29440 32832 31648 26272 28000
600 32128 33664 31632 26288 28032
601 27648 35648 31632 26288 28032
602 36096 33600 31632 26288 28032
603 33088 33152 31632 26288 28032
604 31936 33216 31632 26288 28032
605 28992 32704 31632 26288 28032
606 31488 31488 31632 26288 28032
607 22208 30912 31632 26288 28032
608 31808 33792 31632 26288 28032
609 39936 33920 31632 26288 28032
610 24320 34240 31568 26272 28112
611 36416 34176 31568 26272 28112
612 39424 33152 31568 26272 28112
613 34752 32640 31568 26272 28112
614 32320 31360 31568 26272 28112
615 24960 31168 31568 26272 28112
616 41024 32192 31568 26272 28112
617 27840 32320 31568 26272 28112
618 32704 34240 31568 26272 28112
619 40704 32448 31568 26272 28112
620 35584 31552 31616 26272 28320
621 31296 32768 31616 26272 28320
622 33088 33856 31616 26272 28320
623 35328 32960 31616 26272 28320
624 33088 31616 31616 26272 28320
625 21184 31168 31616 26272 28320
626 27200 30336 31616 26272 28320
627 33536 32512 31616 26272 28320
628 32896 32448 31616 26272 28320
629 30464 32832 31616 26272 28320
630 29120 33216 32064 26096 28336
631 32640 34112 32064 26096 28336
632 28032 32576 32064 26096 28336
633 31808 32832 32064 26096 28336
634 29760 32448 32064 26096 28336
635 18688 32704 32064 26096 28336
636 30720 32960 32064 26096 28336
637 34624 33408 32064 26096 28336
638 27712 30336 32064 26096 28336
639 32064 29760 32064 26096 28336
640 28928 30464 32064 26096 28336
641 30784 32384 32064 26096 28336
642 34944 34880 32064 26096 28336
643 34112 35008 32064 26096 28336
644 26816 34688 32064 26096 28336
645 36288 33664 32064 26096 28336
646 32384 32512 32064 26096 28336
647 27136 32512 32064 26096 28336
648 33344 31232 32064 26096 28336
649 34368 31424 32064 26096 28336
650 31552 31296 31824 25952 28400
651 29376 30400 31824 25952 28400
652 32640 31936 31824 25952 28400
653 32704 33216 31824 25952 28400
654 31424 35584 31824 25952 28400
655 32640 35712 31824 25952 28400
656 30848 37120 31824 25952 28400
657 28928 37312 31824 25952 28400
658 31808 39232 31824 25952 28400
659 35904 39232 31824 25952 28400
660 45120 39872 31168 25664 28416
661 49216 40256 31168 25664 28416
662 44096 41472 31168 25664 28416
663 25664 40832 31168 25664 28416
664 22144 41408 31168 25664 28416
665 27008 42240 31168 25664 28416
666 33344 41536 31168 25664 28416
667 36608 43456 31168 25664 28416
668 33408 41920 31168 25664 28416
669 29376 40064 31168 25664 28416
670 32256 43392 31088 25760 28400
671 33408 44352 31088 25760 28400
672 34304 44288 31088 25760 28400
673 34176 43136 31088 25760 28400
674 32896 42752 31088 25760 28400
675 33408 42816 31088 25760 28400
676 32832 41984 31088 25760 28400
677 32128 39744 31088 25760 28400
678 30912 40256 31088 25760 28400
679 36224 44224 31088 25760 28400
680 35776 43200 31088 25760 28400
681 35328 42176 31088 25760 28400
682 34560 41344 31088 25760 28400
683 34880 40832 31088 25760 28400
684 35520 42368 31088 25760 28400
685 38656 43584 31088 25760 28400
686 37504 42624 31088 25760 28400
687 37376 41088 31088 25760 28400
688 38592 43008 31088 25760 28400
689 35712 41600 31088 25760 28400
690 35648 41984 31328 25952 28480
691 32448 40320 31328 25952 28480
692 29312 37440 31328 25952 28480
693 34304 41088 31328 25952 28480
694 34048 43584 31328 25952 28480
695 34816 44992 31328 25952 28480
696 33216 43008 31328 25952 28480
697 31424 41920 31328 25952 28480
698 32128 41344 31328 25952 28480
699 28672 39808 31328 25952 28480
700 28800 38144 32320 25888 28704
701 28736 38336 32320 25888 28704
702 30528 40000 32320 25888 28704
703 32768 42176 32320 25888 28704
704 31680 41216 32320 25888 28704
705 32384 40896 32320 25888 28704
706 31616 40896 32320 25888 28704
707 30336 38208 32320 25888 28704
708 30592 38592 32320 25888 28704
709 32064 39296 32320 25888 28704
710 33600 38144 32400 26864 28736
711 27648 38272 32400 26864 28736
712 29440 38592 32400 26864 28736
713 30528 38080 32400 26864 28736
714 29952 36928 32400 26864 28736
715 27968 36352 32400 26864 28736
716 31488 38016 32400 26864 28736
717 29888 38784 32400 26864 28736
718 31744 37824 32400 26864 28736
719 31552 37184 32400 26864 28736
720 29760 37312 32192 26880 28544
721 31552 39424 32192 26880 28544
722 29696 38016 32192 26880 28544
723 31808 38464 32192 26880 28544
724 27904 36864 32192 26880 28544
725 25408 34368 32192 26880 28544
726 22400 30848 32192 26880 28544
727 33152 37888 32192 26880 28544
728 31808 37632 32192 26880 28544
729 36608 37824 32192 26880 28544
730 40960 36160 33440 25824 30560
731 48960 35968 33440 25824 30560
732 44160 36352 33440 25824 30560
733 27648 36352 33440 25824 30560
734 22144 36096 33440 25824 30560
735 24192 36352 33440 25824 30560
736 32320 35648 33440 25824 30560
737 36096 34368 33440 25824 30560
738 33472 32832 33440 25824 30560
739 30720 35264 33440 25824 30560
740 32128 35968 33440 25824 30560
741 34240 36928 33440 25824 30560
742 32896 35904 33440 25824 30560
743 33344 34944 33440 25824 30560
744 32192 34368 33440 25824 30560
745 33920 34368 33440 25824 30560
746 31360 33408 33440 25824 30560
747 29632 31744 33440 25824 30560
748 29760 33920 33440 25824 30560
749 34688 37056 33440 25824 30560
750 35264 37248 33424 25504 29776
751 35968 35712 33424 25504 29776
752 34752 34816 33424 25504 29776
753 35904 33664 33424 25504 29776
754 35008 32832 33424 25504 29776
755 32832 30080 33424 25504 29776
756 32448 29120 33424 25504 29776
757 32896 32192 33424 25504 29776
758 37696 34880 33424 25504 29776
759 35264 35072 33424 25504 29776
760 37120 34368 33728 25136 29696
761 35264 35392 33728 25136 29696
762 34944 34624 33728 25136 29696
763 33600 34176 33728 25136 29696
764 31616 32896 33728 25136 29696
765 30912 32256 33728 25136 29696
766 29312 30912 33728 25136 29696
767 30912 32512 33728 25136 29696
768 32320 32384 33728 25136 29696
769 30784 32640 33728 25136 29696
770 30400 32704 33600 25152 30368
771 28800 30976 33600 25152 30368
772 28928 30912 33600 25152 30368
773 33600 35776 33600 25152 30368
774 32896 33984 33600 25152 30368
775 31232 32448 33600 25152 30368
776 31296 32192 33600 25152 30368
777 28416 31616 33600 25152 30368
778 28800 31552 33600 25152 30368
779 30784 30144 33600 25152 30368
780 28480 27968 33584 24832 30096
781 28096 30656 33584 24832 30096
782 30272 32000 33584 24832 30096
783 34752 35264 33584 24832 30096
784 34240 34688 33584 24832 30096
785 33472 33088 33584 24832 30096
786 29504 31360 33584 24832 30096
787 31104 29632 33584 24832 30096
788 25024 28736 33584 24832 30096
789 32448 28864 33584 24832 30096
790 28864 28864 33744 25120 30384
791 34112 32000 33744 25120 30384
792 32512 30720 33744 25120 30384
793 31808 32000 33744 25120 30384
794 31872 32192 33744 25120 30384
795 28800 28096 33744 25120 30384
796 23488 25280 33744 25120 30384
797 30592 30656 33744 25120 30384
798 33664 31616 33744 25120 30384
799 40704 32576 33744 25120 30384
800 43904 32832 33744 25120 30384
801 41472 32192 33744 25120 30384
802 22784 32384 33744 25120 30384
803 25024 31872 33744 25120 30384
804 25984 30848 33744 25120 30384
805 28608 30400 33744 25120 30384
806 32448 30720 33744 25120 30384
807 32640 33856 33744 25120 30384
808 32768 33792 33744 25120 30384
809 32832 33600 33744 25120 30384
810 30592 32384 33472 24576 30208
811 30784 32960 33472 24576 30208
812 27456 32256 33472 24576 30208
813 33664 31936 33472 24576 30208
814 30272 30784 33472 24576 30208
815 29632 29056 33472 24576 30208
816 29376 30016 33472 24576 30208
817 26752 31168 33472 24576 30208
818 33280 32704 33472 24576 30208
819 34688 35840 33472 24576 30208
820 34432 35008 33344 24528 30064
821 32384 33472 33344 24528 30064
822 33024 32960 33344 24528 30064
823 34624 32256 33344 24528 30064
824 33152 32512 33344 24528 30064
825 33600 32000 33344 24528 30064
826 32320 32000 33344 24528 30064
827 27712 30144 33344 24528 30064
828 30528 32512 33344 24528 30064
829 36160 34624 33344 24528 30064
830 31552 32832 33040 24784 30288
831 32768 33216 33040 24784 30288
832 30336 31936 33040 24784 30288
833 29696 31744 33040 24784 30288
834 29248 31104 33040 24784 30288
835 28352 31488 33040 24784 30288
836 27968 31424 33040 24784 30288
837 28736 31936 33040 24784 30288
838 28928 32896 33040 24784 30288
839 27392 32704 33040 24784 30288
840 29568 32576 33040 24784 30288
841 28736 33152 33040 24784 30288
842 25472 32704 33040 24784 30288
843 27136 32640 33040 24784 30288
844 30656 32256 33040 24784 30288
845 29504 31872 33040 24784 30288
846 28288 31232 33040 24784 30288
847 28672 30528 33040 24784 30288
848 27008 30720 33040 24784 30288
849 28928 31488 33040 24784 30288
850 28864 32064 33440 24960 30624
851 29312 33984 33440 24960 30624
852 30528 33088 33440 24960 30624
853 29312 32448 33440 24960 30624
854 29056 32448 33440 24960 30624
855 28736 32320 33440 24960 30624
856 28160 32320 33440 24960 30624
857 27840 32576 33440 24960 30624
858 30272 33024 33440 24960 30624
859 29696 32896 33440 24960 30624
860 29184 32256 33392 25104 30384
861 28608 32128 33392 25104 30384
862 27840 31744 33392 25104 30384
863 28032 32384 33392 25104 30384
864 28608 31936 33392 25104 30384
865 28864 32192 33392 25104 30384
866 28544 32000 33392 25104 30384
867 31360 31936 33392 25104 30384
868 39296 33664 33392 25104 30384
869 43200 32896 33392 25104 30384
870 40192 32320 33840 25216 30688
871 26688 32064 33840 25216 30688
872 22976 31808 33840 25216 30688
873 24128 31424 33840 25216 30688
874 29824 31424 33840 25216 30688
875 33280 31552 33840 25216 30688
876 31616 31744 33840 25216 30688
877 30464 31616 33840 25216 30688
878 30400 31488 33840 25216 30688
879 30912 31424 33840 25216 30688
880 32000 31552 33312 26080 31008
881 31040 31168 33312 26080 31008
882 31808 30784 33312 26080 31008
883 33088 30848 33312 26080 31008
884 32128 30528 33312 26080 31008
885 32064 30400 33312 26080 31008
886 32512 29632 33312 26080 31008
887 33024 29120 33312 26080 31008
888 32000 28672 33312 26080 31008
889 31552 27392 33312 26080 31008
890 34176 26944 32800 25600 29792
891 34176 25728 32800 25600 29792
892 34816 24768 32800 25600 29792
893 35200 22528 32800 25600 29792
894 35392 21568 32800 25600 29792
895 36224 20928 32800 25600 29792
896 36416 20288 32800 25600 29792
897 34944 19072 32800 25600 29792
898 35328 18688 32800 25600 29792
899 34816 18560 32800 25600 29792
900 33664 18560 32800 25600 29792
901 33728 18368 32800 25600 29792
902 32256 18176 32800 25600 29792
903 33280 19072 32800 25600 29792
904 32960 19008 32800 25600 29792
905 31616 19648 32800 25600 29792
906 31488 18816 32800 25600 29792
907 30784 18880 32800 25600 29792
908 29184 18560 32800 25600 29792
909 28992 20032 32800 25600 29792
910 31424 19840 33280 25056 31344
911 31040 21312 33280 25056 31344
912 31040 22144 33280 25056 31344
913 31488 21632 33280 25056 31344
914 30720 22016 33280 25056 31344
915 31424 22336 33280 25056 31344
916 33600 24256 33280 25056 31344
917 31552 22144 33280 25056 31344
918 32768 23232 33280 25056 31344
919 32768 22784 33280 25056 31344
920 33472 23040 30336 23520 28800
921 34304 22656 30336 23520 28800
922 33984 21760 30336 23520 28800
923 34432 20608 30336 23520 28800
924 33600 22720 30336 23520 28800
925 34432 20864 30336 23520 28800
926 34688 21760 30336 23520 28800
927 34368 21696 30336 23520 28800
928 34944 21760 30336 23520 28800
929 34560 21888 30336 23520 28800
930 33152 21376 30880 24288 29264
931 32832 22528 30880 24288 29264
932 33088 22464 30880 24288 29264
933 33280 23104 30880 24288 29264
934 32320 22336 30880 24288 29264
935 32576 23488 30880 24288 29264
936 35584 23872 30880 24288 29264
937 40576 23040 30880 24288 29264
938 49152 24000 30880 24288 29264
939 46592 23872 30880 24288 29264
940 31424 24192 30880 24288 29264
941 26368 25088 30880 24288 29264
942 25600 25280 30880 24288 29264
943 31872 25920 30880 24288 29264
944 34176 26176 30880 24288 29264
945 33792 24704 30880 24288 29264
946 33088 25088 30880 24288 29264
947 33728 26240 30880 24288 29264
948 32768 25408 30880 24288 29264
949 32704 25856 30880 24288 29264
950 32640 26880 31680 24720 29424
951 32960 27392 31680 24720 29424
952 32640 27200 31680 24720 29424
953 33088 26624 31680 24720 29424
954 33024 27008 31680 24720 29424
955 34752 27072 31680 24720 29424
956 33792 27520 31680 24720 29424
957 34240 27840 31680 24720 29424
958 34624 27200 31680 24720 29424
959 34432 27072 31680 24720 29424
960 35968 26752 32096 25024 29248
961 35904 25664 32096 25024 29248
962 35904 25024 32096 25024 29248
963 35968 24704 32096 25024 29248
964 35712 25088 32096 25024 29248
965 35584 24960 32096 25024 29248
966 34560 24896 32096 25024 29248
967 34944 24704 32096 25024 29248
968 33024 24768 32096 25024 29248
969 32896 25536 32096 25024 29248
970 32064 25920 31968 25008 28896
971 31168 25920 31968 25008 28896
972 30656 25792 31968 25008 28896
973 29696 25920 31968 25008 28896
974 29056 25728 31968 25008 28896
975 28736 26432 31968 25008 28896
976 29056 26368 31968 25008 28896
977 28224 26496 31968 25008 28896
978 28032 26368 31968 25008 28896
979 28160 26624 31968 25008 28896
980 27904 26496 32144 25152 28912
981 28224 26752 32144 25152 28912
982 28288 27008 32144 25152 28912
983 28288 27264 32144 25152 28912
984 28160 27264 32144 25152 28912
985 28288 26880 32144 25152 28912
986 28352 27712 32144 25152 28912
987 29248 28480 32144 25152 28912
988 29184 28352 32144 25152 28912
989 29632 28096 32144 25152 28912
990 29184 28288 34176 26208 29728
991 29376 28224 34176 26208 29728
992 28928 28480 34176 26208 29728
993 29632 28800 34176 26208 29728
994 28608 28736 34176 26208 29728
995 29440 29184 34176 26208 29728
996 29248 28864 34176 26208 29728
997 30016 29632 34176 26208 29728
998 28992 29376 34176 26208 29728
999 27904 29440 34176 26208 29728
1000 27264 28992 34176 26208 29728
1001 27712 29760 34176 26208 29728
1002 27840 29696 34176 26208 29728
1003 26944 29888 34176 26208 29728
1004 27840 30080 34176 26208 29728
1005 30656 29888 34176 26208 29728
1006 37760 29888 34176 26208 29728
1007 44416 30144 34176 26208 29728
1008 44480 29952 34176 26208 29728
1009 27840 29888 34176 26208 29728
1010 22656 29568 33664 25984 29312
1011 18496 31104 33664 25984 29312
1012 25472 31680 33664 25984 29312
1013 29184 32960 33664 25984 29312
1014 29184 33728 33664 25984 29312
1015 28800 34816 33664 25984 29312
1016 29248 35520 33664 25984 29312
1017 28800 35712 33664 25984 29312
1018 28672 35392 33664 25984 29312
1019 30080 35328 33664 25984 29312
1020 29568 35456 33392 25664 29152
1021 30016 35328 33392 25664 29152
1022 30272 35008 33392 25664 29152
1023 30528 34496 33392 25664 29152
1024 31552 34816 33392 25664 29152
1025 31808 34176 33392 25664 29152
1026 32576 34752 33392 25664 29152
1027 31744 34496 33392 25664 29152
1028 33344 33856 33392 25664 29152
1029 33472 33600 33392 25664 29152
1030 34112 34176 33440 25472 28864
1031 34624 33792 33440 25472 28864
1032 34240 33728 33440 25472 28864
1033 33600 32768 33440 25472 28864
1034 33984 32960 33440 25472 28864
1035 33856 33984 33440 25472 28864
1036 33536 33792 33440 25472 28864
1037 33408 32768 33440 25472 28864
1038 31680 32896 33440 25472 28864
1039 31616 33600 33440 25472 28864
1040 32256 34240 33360 25472 28752
1041 30400 32960 33360 25472 28752
1042 29760 33920 33360 25472 28752
1043 29056 32896 33360 25472 28752
1044 28032 32704 33360 25472 28752
1045 27712 32384 33360 25472 28752
1046 27200 31296 33360 25472 28752
1047 26816 31104 33360 25472 28752
1048 27200 31424 33360 25472 28752
1049 27264 32256 33360 25472 28752
1050 28544 32704 33312 25408 28736
1051 27648 32896 33312 25408 28736
1052 29760 33088 33312 25408 28736
1053 27776 32512 33312 25408 28736
1054 28096 31680 33312 25408 28736
1055 27584 30848 33312 25408 28736
1056 28864 32256 33312 25408 28736
1057 27520 29824 33312 25408 28736
1058 28480 30720 33312 25408 28736
1059 28096 30656 33312 25408 28736
1060 28096 30144 33312 25408 28736
1061 28544 31936 33312 25408 28736
1062 30080 32448 33312 25408 28736
1063 28480 31936 33312 25408 28736
1064 29056 32000 33312 25408 28736
1065 28672 30784 33312 25408 28736
1066 28160 30720 33312 25408 28736
1067 27392 30208 33312 25408 28736
1068 26496 29760 33312 25408 28736
1069 25344 29824 33312 25408 28736
1070 25984 30400 33664 25600 28288
1071 28224 31424 33664 25600 28288
1072 26880 30912 33664 25600 28288
1073 25088 29632 33664 25600 28288
1074 25792 29056 33664 25600 28288
1075 30144 29824 33664 25600 28288
1076 39808 31424 33664 25600 28288
1077 45632 31104 33664 25600 28288
1078 39808 30464 33664 25600 28288
1079 24000 28736 33664 25600 28288
1080 17216 28224 33728 25728 28352
1081 19968 29952 33728 25728 28352
1082 25664 29760 33728 25728 28352
1083 27520 29312 33728 25728 28352
1084 29760 31488 33728 25728 28352
1085 28288 30848 33728 25728 28352
1086 28608 30464 33728 25728 28352
1087 28672 29504 33728 25728 28352
1088 26496 27968 33728 25728 28352
1089 28288 29312 33728 25728 28352
1090 28224 28864 33424 25968 28384
1091 27904 28160 33424 25968 28384
1092 27200 27264 33424 25968 28384
1093 30080 29504 33424 25968 28384
1094 31488 30912 33424 25968 28384
1095 31936 30720 33424 25968 28384
1096 31808 30656 33424 25968 28384
1097 33152 29760 33424 25968 28384
1098 32320 29312 33424 25968 28384
1099 31872 27776 33424 25968 28384
1100 31872 28160 33424 25968 28384
1101 32448 26816 33424 25968 28384
1102 30912 26816 33424 25968 28384
1103 36160 31936 33424 25968 28384
1104 35776 31040 33424 25968 28384
1105 33408 30272 33424 25968 28384
1106 32320 29696 33424 25968 28384
1107 33024 29504 33424 25968 28384
1108 31360 29440 33424 25968 28384
1109 30208 28352 33424 25968 28384
1110 30400 30080 32832 26336 28320
1111 26624 27968 32832 26336 28320
1112 25024 25344 32832 26336 28320
1113 26624 28800 32832 26336 28320
1114 30272 31744 32832 26336 28320
1115 30336 34688 32832 26336 28320
1116 29632 32256 32832 26336 28320
1117 28416 29632 32832 26336 28320
1118 29312 33856 32832 26336 28320
1119 26112 30528 32832 26336 28320
1120 27136 32896 32880 26256 28224
1121 27392 35328 32880 26256 28224
1122 26688 34560 32880 26256 28224
1123 29184 36288 32880 26256 28224
1124 30272 36928 32880 26256 28224
1125 30272 36544 32880 26256 28224
1126 30080 36608 32880 26256 28224
1127 27200 32384 32880 26256 28224
1128 26688 32512 32880 26256 28224
1129 29440 33408 32880 26256 28224
1130 24768 29696 33136 25952 28176
1131 31680 37568 33136 25952 28176
1132 34560 38784 33136 25952 28176
1133 31552 37184 33136 25952 28176
1134 30464 34880 33136 25952 28176
1135 31936 36160 33136 25952 28176
1136 28864 32000 33136 25952 28176
1137 27904 30912 33136 25952 28176
1138 25280 30912 33136 25952 28176
1139 29056 34048 33136 25952 28176
1140 29440 33920 32192 26528 28288
1141 30336 35456 32192 26528 28288
1142 30784 35648 32192 26528 28288
1143 29952 35456 32192 26528 28288
1144 29376 33856 32192 26528 28288
1145 34688 33344 32192 26528 28288
1146 43392 32256 32192 26528 28288
1147 46080 32704 32192 26528 28288
1148 33408 32896 32192 26528 28288
1149 23936 33856 32192 26528 28288
1150 19904 35200 31536 26672 28208
1151 25344 35328 31536 26672 28208
1152 29056 35968 31536 26672 28208
1153 26880 33856 31536 26672 28208
1154 26112 33344 31536 26672 28208
1155 32192 40320 31536 26672 28208
1156 31232 41088 31536 26672 28208
1157 32832 43648 31536 26672 28208
1158 30400 43712 31536 26672 28208
1159 31488 43776 31536 26672 28208
1160 31232 43328 31536 26672 28208
1161 30272 43456 31536 26672 28208
1162 31296 43840 31536 26672 28208
1163 31104 43584 31536 26672 28208
1164 30016 42752 31536 26672 28208
1165 28928 41024 31536 26672 28208
1166 30720 43776 31536 26672 28208
1167 34560 46400 31536 26672 28208
1168 34496 47424 31536 26672 28208
1169 35520 46144 31536 26672 28208
1170 34944 44864 31200 26384 28240
1171 34496 44096 31200 26384 28240
1172 34560 43200 31200 26384 28240
1173 33728 42816 31200 26384 28240
1174 32832 41920 31200 26384 28240
1175 31872 40640 31200 26384 28240
1176 32256 41728 31200 26384 28240
1177 34368 44096 31200 26384 28240
1178 33728 44160 31200 26384 28240
1179 32768 43328 31200 26384 28240
1180 29696 41344 30080 26400 28352
1181 29888 41536 30080 26400 28352
1182 29568 41024 30080 26400 28352
1183 28096 39872 30080 26400 28352
1184 30784 42368 30080 26400 28352
1185 31744 43648 30080 26400 28352
1186 28864 41152 30080 26400 28352
1187 29696 41216 30080 26400 28352
1188 30720 41536 30080 26400 28352
1189 30080 41280 30080 26400 28352
1190 29888 40320 30144 26432 28416
1191 29504 39872 30144 26432 28416
1192 28480 39936 30144 26432 28416
1193 30912 41152 30144 26432 28416
1194 31616 40384 30144 26432 28416
1195 31936 41216 30144 26432 28416
1196 30720 40320 30144 26432 28416
1197 31424 40512 30144 26432 28416
1198 31104 39744 30144 26432 28416
1199 30976 41152 30144 26432 28416
1200 31488 39872 30144 26432 28416
1201 33024 43904 30144 26432 28416
1202 32000 39488 30144 26432 28416
1203 31680 39424 30144 26432 28416
1204 31744 40640 30144 26432 28416
1205 31744 38720 30144 26432 28416
1206 31424 37696 30144 26432 28416
1207 31936 39616 30144 26432 28416
1208 30656 37632 30144 26432 28416
1209 31040 39552 30144 26432 28416
1210 31488 40128 29824 26640 28352
1211 30336 38208 29824 26640 28352
1212 30208 37376 29824 26640 28352
1213 31232 38400 29824 26640 28352
1214 34944 38912 29824 26640 28352
1215 42944 37888 29824 26640 28352
1216 50688 35776 29824 26640 28352
1217 43776 35776 29824 26640 28352
1218 29888 37632 29824 26640 28352
1219 22336 36352 29824 26640 28352
1220 24384 36608 29408 26816 28256
1221 31488 36608 29408 26816 28256
1222 34240 36160 29408 26816 28256
1223 33536 36288 29408 26816 28256
1224 31680 35264 29408 26816 28256
1225 32512 37056 29408 26816 28256
1226 31936 36160 29408 26816 28256
1227 32512 36096 29408 26816 28256
1228 32640 37824 29408 26816 28256
1229 32128 36864 29408 26816 28256
1230 33408 36928 29488 26864 28352
1231 33152 36736 29488 26864 28352
1232 33472 36992 29488 26864 28352
1233 33600 35648 29488 26864 28352
1234 33856 36032 29488 26864 28352
1235 35328 35904 29488 26864 28352
1236 34752 35392 29488 26864 28352
1237 35584 35264 29488 26864 28352
1238 36224 35712 29488 26864 28352
1239 37056 35904 29488 26864 28352
1240 36864 36224 29360 26864 28288
1241 37440 36608 29360 26864 28288
1242 37952 36800 29360 26864 28288
1243 37504 36416 29360 26864 28288
1244 36800 36032 29360 26864 28288
1245 36352 35904 29360 26864 28288
1246 36160 35200 29360 26864 28288
1247 34752 35520 29360 26864 28288
1248 33984 35264 29360 26864 28288
1249 33216 35328 29360 26864 28288
1250 32640 35584 29120 26976 28480
1251 32768 35968 29120 26976 28480
1252 32832 36352 29120 26976 28480
1253 31232 36096 29120 26976 28480
1254 32064 36288 29120 26976 28480
1255 30976 35712 29120 26976 28480
1256 30720 35392 29120 26976 28480
1257 30656 35520 29120 26976 28480
1258 30528 34688 29120 26976 28480
1259 31104 34688 29120 26976 28480
1260 31616 34816 29120 26976 28480
1261 31744 34880 29120 26976 28480
1262 32192 34880 29120 26976 28480
1263 31296 34624 29120 26976 28480
1264 31808 35008 29120 26976 28480
1265 32128 34752 29120 26976 28480
1266 32512 35264 29120 26976 28480
1267 32576 35264 29120 26976 28480
1268 32256 35328 29120 26976 28480
1269 32640 35328 29120 26976 28480
1270 33600 35840 28960 26976 28512
1271 31552 35136 28960 26976 28512
1272 31232 33792 28960 26976 28512
1273 32320 34240 28960 26976 28512
1274 32320 34368 28960 26976 28512
1275 31808 34560 28960 26976 28512
1276 31296 34304 28960 26976 28512
1277 30208 33984 28960 26976 28512
1278 29696 34112 28960 26976 28512
1279 30656 33792 28960 26976 28512
1280 30976 34176 29008 26832 28544
1281 30592 34240 29008 26832 28544
1282 31872 34304 29008 26832 28544
1283 37696 33920 29008 26832 28544
1284 46464 33728 29008 26832 28544
1285 51456 33856 29008 26832 28544
1286 36608 33856 29008 26832 28544
1287 27840 33984 29008 26832 28544
1288 21888 33984 29008 26832 28544
1289 27392 33920 29008 26832 28544
1290 32064 33024 29184 26752 28672
1291 33216 33536 29184 26752 28672
1292 32064 32896 29184 26752 28672
1293 31296 33152 29184 26752 28672
1294 31552 33024 29184 26752 28672
1295 31360 32832 29184 26752 28672
1296 31744 32640 29184 26752 28672
1297 31232 32704 29184 26752 28672
1298 32448 33088 29184 26752 28672
1299 32256 33024 29184 26752 28672
1300 32064 32960 29200 26896 28592
1301 32320 33024 29200 26896 28592
1302 32960 32960 29200 26896 28592
1303 33856 33024 29200 26896 28592
1304 33728 32896 29200 26896 28592
1305 33856 32960 29200 26896 28592
1306 34432 32704 29200 26896 28592
1307 35520 32832 29200 26896 28592
1308 35776 32960 29200 26896 28592
1309 35968 33024 29200 26896 28592
1310 35840 33088 29200 26896 28592
1311 35136 32640 29200 26896 28592
1312 35584 33024 29200 26896 28592
1313 36096 33152 29200 26896 28592
1314 35008 32448 29200 26896 28592
1315 34944 32384 29200 26896 28592
1316 33792 31936 29200 26896 28592
1317 32576 31616 29200 26896 28592
1318 32384 31616 29200 26896 28592
1319 31360 32192 29200 26896 28592
1320 31680 31872 29232 26864 28512
1321 30528 32000 29232 26864 28512
1322 31168 32448 29232 26864 28512
1323 30016 32064 29232 26864 28512
1324 30080 32128 29232 26864 28512
1325 30528 32000 29232 26864 28512
1326 30144 31872 29232 26864 28512
1327 30976 31744 29232 26864 28512
1328 30464 32000 29232 26864 28512
1329 30400 31296 29232 26864 28512
1330 30144 31936 29408 26880 28448
1331 31296 32832 29408 26880 28448
1332 30912 32320 29408 26880 28448
1333 31744 31872 29408 26880 28448
1334 31040 32512 29408 26880 28448
1335 31488 32320 29408 26880 28448
1336 31232 32512 29408 26880 28448
1337 32128 31936 29408 26880 28448
1338 31616 31488 29408 26880 28448
1339 31360 31424 29408 26880 28448
1340 30720 31616 29344 26864 28480
1341 30528 30656 29344 26864 28480
1342 30592 30336 29344 26864 28480
1343 30976 31040 29344 26864 28480
1344 31168 32128 29344 26864 28480
1345 30400 32256 29344 26864 28480
1346 30080 31616 29344 26864 28480
1347 30784 31872 29344 26864 28480
1348 30528 31552 29344 26864 28480
1349 30592 31744 29344 26864 28480
1350 31104 31296 29264 26816 28496
1351 35840 30912 29264 26816 28496
1352 44992 30784 29264 26816 28496
1353 49856 30848 29264 26816 28496
1354 38720 31296 29264 26816 28496
1355 27520 31488 29264 26816 28496
1356 21952 31296 29264 26816 28496
1357 26240 31616 29264 26816 28496
1358 32192 31424 29264 26816 28496
1359 34176 32000 29264 26816 28496
1360 32192 31232 29264 26816 28496
1361 31168 31104 29264 26816 28496
1362 31104 31424 29264 26816 28496
1363 31040 30976 29264 26816 28496
1364 31296 31680 29264 26816 28496
1365 31744 31488 29264 26816 28496
1366 31616 31616 29264 26816 28496
1367 32064 31424 29264 26816 28496
1368 32576 31616 29264 26816 28496
1369 32832 31040 29264 26816 28496
1370 32512 31168 29504 26784 28480
1371 33344 30912 29504 26784 28480
1372 33472 30976 29504 26784 28480
1373 33472 31040 29504 26784 28480
1374 33664 31040 29504 26784 28480
1375 35264 31104 29504 26784 28480
1376 35968 31680 29504 26784 28480
1377 35392 31168 29504 26784 28480
1378 35776 31744 29504 26784 28480
1379 34944 31552 29504 26784 28480
1380 34880 31360 29472 26768 28464
1381 35776 32256 29472 26768 28464
1382 35648 32256 29472 26768 28464
1383 34752 31744 29472 26768 28464
1384 33856 31552 29472 26768 28464
1385 32896 31552 29472 26768 28464
1386 31744 31552 29472 26768 28464
1387 31744 32192 29472 26768 28464
1388 30976 32000 29472 26768 28464
1389 30656 32384 29472 26768 28464
1390 30016 32448 29472 26720 28544
1391 30080 32640 29472 26720 28544
1392 29376 31936 29472 26720 28544
1393 29824 32064 29472 26720 28544
1394 30208 31296 29472 26720 28544
1395 29632 30848 29472 26720 28544
1396 29888 31232 29472 26720 28544
1397 29312 31040 29472 26720 28544
1398 30016 30720 29472 26720 28544
1399 29696 30400 29472 26720 28544
1400 31360 32384 29728 26720 28480
1401 31744 33088 29728 26720 28480
1402 31168 32384 29728 26720 28480
1403 31552 32384 29728 26720 28480
1404 31936 32000 29728 26720 28480
1405 31360 31616 29728 26720 28480
1406 30656 31104 29728 26720 28480
1407 30656 30720 29728 26720 28480
1408 30272 30912 29728 26720 28480
1409 32128 30848 29728 26720 28480
1410 30848 31296 29648 26704 28448
1411 30784 32064 29648 26704 28448
1412 29952 31936 29648 26704 28448
1413 29888 31744 29648 26704 28448
1414 29504 32704 29648 26704 28448
1415 31104 32576 29648 26704 28448
1416 30336 31680 29648 26704 28448
1417 29888 31040 29648 26704 28448
1418 30592 30656 29648 26704 28448
1419 34624 30336 29648 26704 28448
1420 45248 31104 29648 26704 28448
1421 51840 31488 29648 26704 28448
1422 43648 30912 29648 26704 28448
1423 27584 30976 29648 26704 28448
1424 21120 31808 29648 26704 28448
1425 24704 32640 29648 26704 28448
1426 31232 32640 29648 26704 28448
1427 33088 32192 29648 26704 28448
1428 31744 31424 29648 26704 28448
1429 31104 31680 29648 26704 28448
1430 30528 30656 29664 26688 28464
1431 30144 30080 29664 26688 28464
1432 30528 30912 29664 26688 28464
1433 30592 30400 29664 26688 28464
1434 32384 32576 29664 26688 28464
1435 32256 32064 29664 26688 28464
1436 32832 31872 29664 26688 28464
1437 32128 31168 29664 26688 28464
1438 32512 31744 29664 26688 28464
1439 32512 31552 29664 26688 28464
1440 33856 31360 29504 26688 28512
1441 33600 30528 29504 26688 28512
1442 33984 30016 29504 26688 28512
1443 34496 29760 29504 26688 28512
1444 35712 30336 29504 26688 28512
1445 36160 30016 29504 26688 28512
1446 35776 29952 29504 26688 28512
1447 35712 29952 29504 26688 28512
1448 36096 29888 29504 26688 28512
1449 35584 30400 29504 26688 28512
1450 35008 29952 29536 26672 28512
1451 34944 30144 29536 26672 28512
1452 33856 30016 29536 26672 28512
1453 33152 29696 29536 26672 28512
1454 32384 28800 29536 26672 28512
1455 31552 28672 29536 26672 28512
1456 30784 29056 29536 26672 28512
1457 31168 28672 29536 26672 28512
1458 30208 28608 29536 26672 28512
1459 29824 28032 29536 26672 28512
1460 30592 28096 29536 26672 28512
1461 30528 29184 29536 26672 28512
1462 30848 29376 29536 26672 28512
1463 30528 29248 29536 26672 28512
1464 30464 28544 29536 26672 28512
1465 30848 28480 29536 26672 28512
1466 29568 27776 29536 26672 28512
1467 29824 28032 29536 26672 28512
1468 30272 27584 29536 26672 28512
1469 31744 28160 29536 26672 28512
1470 31104 27584 29584 26656 28512
1471 31488 27520 29584 26656 28512
1472 30784 27328 29584 26656 28512
1473 31488 27456 29584 26656 28512
1474 31616 27968 29584 26656 28512
1475 31488 28288 29584 26656 28512
1476 30080 28288 29584 26656 28512
1477 30528 28736 29584 26656 28512
1478 31424 28224 29584 26656 28512
1479 31040 28480 29584 26656 28512
1480 30528 28416 29504 26688 28416
1481 30016 28544 29504 26688 28416
1482 28608 28608 29504 26688 28416
1483 28928 28736 29504 26688 28416
1484 29184 29056 29504 26688 28416
1485 29376 30144 29504 26688 28416
1486 29824 30784 29504 26688 28416
1487 31744 30208 29504 26688 28416
1488 39680 30272 29504 26688 28416
1489 50176 30080 29504 26688 28416
1490 51776 29824 29552 26656 28448
1491 32448 29760 29552 26656 28448
1492 23936 30144 29552 26656 28448
1493 19840 30272 29552 26656 28448
1494 27712 30912 29552 26656 28448
1495 32512 30976 29552 26656 28448
1496 32384 31232 29552 26656 28448
1497 31424 31552 29552 26656 28448
1498 30656 31680 29552 26656 28448
1499 30720 31360 29552 26656 28448
1500 29312 31616 29552 26672 28464
1501 31104 31360 29552 26672 28464
1502 30336 31168 29552 26672 28464
1503 31040 31424 29552 26672 28464
1504 31296 32128 29552 26672 28464
1505 32192 32192 29552 26672 28464
1506 32320 32192 29552 26672 28464
1507 32640 32512 29552 26672 28464
1508 32576 32000 29552 26672 28464
1509 32896 32448 29552 26672 28464
1510 33664 32768 29600 26720 28544
1511 34240 32960 29600 26720 28544
1512 34304 32768 29600 26720 28544
1513 35840 32704 29600 26720 28544
1514 35264 33024 29600 26720 28544
1515 35136 33344 29600 26720 28544
1516 35456 33280 29600 26720 28544
1517 35008 33088 29600 26720 28544
1518 34880 33408 29600 26720 28544
1519 34112 33600 29600 26720 28544
1520 33920 33408 29600 26720 28544
1521 32384 33984 29600 26720 28544
1522 32128 33920 29600 26720 28544
1523 32320 34624 29600 26720 28544
1524 30720 34112 29600 26720 28544
1525 30016 33280 29600 26720 28544
1526 29440 33536 29600 26720 28544
1527 29568 33344 29600 26720 28544
1528 28928 33472 29600 26720 28544
1529 28992 33280 29600 26720 28544
1530 28672 33024 29584 26720 28528
1531 29248 33152 29584 26720 28528
1532 30144 33664 29584 26720 28528
1533 30848 34688 29584 26720 28528
1534 30144 34304 29584 26720 28528
1535 30336 34240 29584 26720 28528
1536 29760 34112 29584 26720 28528
1537 30208 33664 29584 26720 28528
1538 30848 33408 29584 26720 28528
1539 30656 33280 29584 26720 28528
1540 30016 33216 29584 26688 28560
1541 30912 33600 29584 26688 28560
1542 31168 33088 29584 26688 28560
1543 31360 32704 29584 26688 28560
1544 29888 33024 29584 26688 28560
1545 30592 33408 29584 26688 28560
1546 30464 33536 29584 26688 28560
1547 30592 33408 29584 26688 28560
1548 30400 33344 29584 26688 28560
1549 30208 32896 29584 26688 28560
1550 29824 32832 29472 26528 28512
1551 28992 32832 29472 26528 28512
1552 29632 33472 29472 26528 28512
1553 29120 32896 29472 26528 28512
1554 29376 32896 29472 26528 28512
1555 29888 33024 29472 26528 28512
1556 31232 32960 29472 26528 28512
1557 38080 32832 29472 26528 28512
1558 48832 33216 29472 26528 28512
1559 51712 32576 29472 26528 28512
1560 36288 32384 29568 26544 28512
1561 23552 32576 29568 26544 28512
1562 20352 33024 29568 26544 28512
1563 27008 32512 29568 26544 28512
1564 32192 32640 29568 26544 28512
1565 33664 33088 29568 26544 28512
1566 31616 33088 29568 26544 28512
1567 30464 32704 29568 26544 28512
1568 30208 32640 29568 26544 28512
1569 30848 32960 29568 26544 28512
1570 30720 33024 29568 26544 28512
1571 31232 32832 29568 26544 28512
1572 30464 32576 29568 26544 28512
1573 31552 33024 29568 26544 28512
1574 31744 32000 29568 26544 28512
1575 31552 32320 29568 26544 28512
1576 31744 32256 29568 26544 28512
1577 32704 32832 29568 26544 28512
1578 33728 32384 29568 26544 28512
1579 34304 32448 29568 26544 28512
1580 34176 32640 29648 26544 28560
1581 34688 32640 29648 26544 28560
1582 35200 32448 29648 26544 28560
1583 34560 31872 29648 26544 28560
1584 35072 31616 29648 26544 28560
1585 35456 32448 29648 26544 28560
1586 35776 33088 29648 26544 28560
1587 35904 32768 29648 26544 28560
1588 35008 32704 29648 26544 28560
1589 33600 32448 29648 26544 28560
1590 33408 32128 29760 26528 28480
1591 32512 32128 29760 26528 28480
1592 31168 32384 29760 26528 28480
1593 30976 32256 29760 26528 28480
1594 30208 32832 29760 26528 28480
1595 29568 32448 29760 26528 28480
1596 29632 32256 29760 26528 28480
1597 29440 32320 29760 26528 28480
1598 29440 32064 29760 26528 28480
1599 29120 31872 29760 26528 28480
1600 30592 32448 29728 26560 28480
1601 28864 31744 29728 26560 28480
1602 29760 32448 29728 26560 28480
1603 29120 31872 29728 26560 28480
1604 29888 32128 29728 26560 28480
1605 29760 32000 29728 26560 28480
1606 29632 32256 29728 26560 28480
1607 30080 31936 29728 26560 28480
1608 30016 32448 29728 26560 28480
1609 29824 31808 29728 26560 28480
1610 29568 31808 29680 26560 28480
1611 30464 32448 29680 26560 28480
1612 29312 32064 29680 26560 28480
1613 29184 31488 29680 26560 28480
1614 29504 32320 29680 26560 28480
1615 30464 32832 29680 26560 28480
1616 29888 32384 29680 26560 28480
1617 30528 32960 29680 26560 28480
1618 29184 32640 29680 26560 28480
1619 29056 32768 29680 26560 28480
1620 28416 32320 29680 26560 28480
1621 28032 31936 29680 26560 28480
1622 27584 31680 29680 26560 28480
1623 28032 32064 29680 26560 28480
1624 29824 32768 29680 26560 28480
1625 30016 32512 29680 26560 28480
1626 35136 31808 29680 26560 28480
1627 45120 32000 29680 26560 28480
1628 50880 31488 29680 26560 28480
1629 40000 31232 29680 26560 28480
1630 26496 30912 29696 26560 28512
1631 20416 30464 29696 26560 28512
1632 25408 31296 29696 26560 28512
1633 30848 31808 29696 26560 28512
1634 32064 31808 29696 26560 28512
1635 30848 31232 29696 26560 28512
1636 30592 31680 29696 26560 28512
1637 30272 31744 29696 26560 28512
1638 31104 31488 29696 26560 28512
1639 30848 31488 29696 26560 28512
1640 30400 30976 29600 26544 28480
1641 30656 30976 29600 26544 28480
1642 30848 30592 29600 26544 28480
1643 31552 30592 29600 26544 28480
1644 31168 30272 29600 26544 28480
1645 30784 29952 29600 26544 28480
1646 32320 30848 29600 26544 28480
1647 33088 31488 29600 26544 28480
1648 33152 31104 29600 26544 28480
1649 34368 31040 29600 26544 28480
1650 34112 30848 29616 26592 28512
1651 33920 30720 29616 26592 28512
1652 35264 31232 29616 26592 28512
1653 35072 31296 29616 26592 28512
1654 34752 30848 29616 26592 28512
1655 34176 31104 29616 26592 28512
1656 34240 30656 29616 26592 28512
1657 33856 30976 29616 26592 28512
1658 33088 30848 29616 26592 28512
1659 32576 30784 29616 26592 28512
1660 32000 30976 29632 26560 28480
1661 31168 31168 29632 26560 28480
1662 30592 31104 29632 26560 28480
1663 30272 31360 29632 26560 28480
1664 29632 31552 29632 26560 28480
1665 29504 31424 29632 26560 28480
1666 29056 31296 29632 26560 28480
1667 28288 30784 29632 26560 28480
1668 28416 30912 29632 26560 28480
1669 28352 30464 29632 26560 28480
1670 28352 31168 29600 26640 28496
1671 29440 31616 29600 26640 28496
1672 28864 31488 29600 26640 28496
1673 30208 31616 29600 26640 28496
1674 30272 31552 29600 26640 28496
1675 29696 32000 29600 26640 28496
1676 29632 31872 29600 26640 28496
1677 30016 31232 29600 26640 28496
1678 30592 31424 29600 26640 28496
1679 29568 30656 29600 26640 28496
1680 30400 30848 29600 26640 28496
1681 29952 30464 29600 26640 28496
1682 29248 29952 29600 26640 28496
1683 29440 30656 29600 26640 28496
1684 30400 31424 29600 26640 28496
1685 30784 31232 29600 26640 28496
1686 30272 31104 29600 26640 28496
1687 30400 31296 29600 26640 28496
1688 29696 31488 29600 26640 28496
1689 29696 31744 29600 26640 28496
1690 29376 31552 29552 26704 28528
1691 28032 31296 29552 26704 28528
1692 28480 31104 29552 26704 28528
1693 28800 31424 29552 26704 28528
1694 30208 31424 29552 26704 28528
1695 35008 31360 29552 26704 28528
1696 45504 32000 29552 26704 28528
1697 50048 31424 29552 26704 28528
1698 40000 31744 29552 26704 28528
1699 26560 32384 29552 26704 28528
1700 20608 32576 29536 26528 28608
1701 24896 32576 29536 26528 28608
1702 30848 32768 29536 26528 28608
1703 32704 32512 29536 26528 28608
1704 30272 32000 29536 26528 28608
1705 28864 31488 29536 26528 28608
1706 29760 31936 29536 26528 28608
1707 30592 32448 29536 26528 28608
1708 30208 32704 29536 26528 28608
1709 31040 33088 29536 26528 28608
1710 31040 32960 29584 26624 28576
1711 31168 33152 29584 26624 28576
1712 31616 33216 29584 26624 28576
1713 31360 33088 29584 26624 28576
1714 31936 32576 29584 26624 28576
1715 32576 32000 29584 26624 28576
1716 32320 31488 29584 26624 28576
1717 32960 31808 29584 26624 28576
1718 33920 32064 29584 26624 28576
1719 34560 31744 29584 26624 28576
1720 34240 31232 29584 26624 28576
1721 35008 31488 29584 26624 28576
1722 36416 32576 29584 26624 28576
1723 35008 31936 29584 26624 28576
1724 35136 31616 29584 26624 28576
1725 35072 31808 29584 26624 28576
1726 34176 31168 29584 26624 28576
1727 33408 31296 29584 26624 28576
1728 32768 30976 29584 26624 28576
1729 31360 30720 29584 26624 28576
1730 31744 30912 29568 26640 28512
1731 30656 30848 29568 26640 28512
1732 30080 30848 29568 26640 28512
1733 29120 31040 29568 26640 28512
1734 29120 31360 29568 26640 28512
1735 29056 31488 29568 26640 28512
1736 29952 31872 29568 26640 28512
1737 29440 32320 29568 26640 28512
1738 30144 32000 29568 26640 28512
1739 29632 31872 29568 26640 28512
1740 29760 31488 29568 26784 28544
1741 29632 31360 29568 26784 28544
1742 29440 30848 29568 26784 28544
1743 29376 30976 29568 26784 28544
1744 30016 31232 29568 26784 28544
1745 29440 30912 29568 26784 28544
1746 28736 30720 29568 26784 28544
1747 30848 32000 29568 26784 28544
1748 31040 32320 29568 26784 28544
1749 29888 32000 29568 26784 28544
1750 30848 31616 29568 26704 28560
1751 30720 31488 29568 26704 28560
1752 30144 31808 29568 26704 28560
1753 29056 31360 29568 26704 28560
1754 29760 31232 29568 26704 28560
1755 29184 30656 29568 26704 28560
1756 30272 31360 29568 26704 28560
1757 30464 32192 29568 26704 28560
1758 29056 31936 29568 26704 28560
1759 29504 32384 29568 26704 28560
1760 28672 32192 29584 26656 28512
1761 29248 32064 29584 26656 28512
1762 29952 32448 29584 26656 28512
1763 29184 31808 29584 26656 28512
1764 31744 31680 29584 26656 28512
1765 39552 32000 29584 26656 28512
1766 49088 31040 29584 26656 28512
1767 51456 30976 29584 26656 28512
1768 32640 30848 29584 26656 28512
1769 23744 30720 29584 26656 28512
1770 20032 30528 29664 26592 28512
1771 28544 31232 29664 26592 28512
1772 32384 31168 29664 26592 28512
1773 32320 30656 29664 26592 28512
1774 30848 30656 29664 26592 28512
1775 30272 29952 29664 26592 28512
1776 30592 30016 29664 26592 28512
1777 30208 29632 29664 26592 28512
1778 29696 28672 29664 26592 28512
1779 30720 29120 29664 26592 28512
1780 31424 28864 29664 26592 28512
1781 31296 28288 29664 26592 28512
1782 31808 28544 29664 26592 28512
1783 31808 28672 29664 26592 28512
1784 32832 28160 29664 26592 28512
1785 32448 27520 29664 26592 28512
1786 33152 27456 29664 26592 28512
1787 33856 27776 29664 26592 28512
1788 34816 28224 29664 26592 28512
1789 34560 27648 29664 26592 28512
1790 35264 27712 29632 26608 28512
1791 35456 27968 29632 26608 28512
1792 35648 27776 29632 26608 28512
1793 35456 28032 29632 26608 28512
1794 35328 28352 29632 26608 28512
1795 35136 28672 29632 26608 28512
1796 34624 28352 29632 26608 28512
1797 33280 28480 29632 26608 28512
1798 32576 28608 29632 26608 28512
1799 32000 28736 29632 26608 28512
1800 31232 28544 29584 26624 28528
1801 30464 28416 29584 26624 28528
1802 30144 28992 29584 26624 28528
1803 29824 28800 29584 26624 28528
1804 29632 28544 29584 26624 28528
1805 30016 29632 29584 26624 28528
1806 28928 29504 29584 26624 28528
1807 29376 29248 29584 26624 28528
1808 30208 29376 29584 26624 28528
1809 29248 29248 29584 26624 28528
1810 29888 29504 29600 26624 28448
1811 29632 29440 29600 26624 28448
1812 29824 29696 29600 26624 28448
1813 30464 30016 29600 26624 28448
1814 30080 29696 29600 26624 28448
1815 30144 29440 29600 26624 28448
1816 29440 29248 29600 26624 28448
1817 30336 29760 29600 26624 28448
1818 30016 29824 29600 26624 28448
1819 30464 29824 29600 26624 28448
1820 31168 30144 29568 26608 28464
1821 31168 30272 29568 26608 28464
1822 31040 29888 29568 26608 28464
1823 29440 29696 29568 26608 28464
1824 30336 30080 29568 26608 28464
1825 30400 30592 29568 26608 28464
1826 30912 30464 29568 26608 28464
1827 30208 30592 29568 26608 28464
1828 29824 30272 29568 26608 28464
1829 28224 30208 29568 26608 28464
1830 28544 29824 29568 26608 28464
1831 27840 29888 29568 26608 28464
1832 28736 30464 29568 26608 28464
1833 28928 30208 29568 26608 28464
1834 30208 30848 29568 26608 28464
1835 34816 30912 29568 26608 28464
1836 44160 30656 29568 26608 28464
1837 52160 30592 29568 26608 28464
1838 46144 30848 29568 26608 28464
1839 27840 30720 29568 26608 28464
1840 20992 30848 29584 26656 28480
1841 22848 30976 29584 26656 28480
1842 30784 31808 29584 26656 28480
1843 33408 31296 29584 26656 28480
1844 31424 31296 29584 26656 28480
1845 30528 31232 29584 26656 28480
1846 30656 31424 29584 26656 28480
1847 30848 32064 29584 26656 28480
1848 30656 31424 29584 26656 28480
1849 30592 31616 29584 26656 28480
1850 31232 31552 29504 26624 28544
1851 31232 31680 29504 26624 28544
1852 31744 31488 29504 26624 28544
1853 32640 31680 29504 26624 28544
1854 32512 31552 29504 26624 28544
1855 33024 31552 29504 26624 28544
1856 33280 30848 29504 26624 28544
1857 33920 31872 29504 26624 28544
1858 33728 31552 29504 26624 28544
1859 35328 31104 29504 26624 28544
1860 34944 31424 29520 26624 28512
1861 35840 31296 29520 26624 28512
1862 35840 31104 29520 26624 28512
1863 35968 30976 29520 26624 28512
1864 36416 31232 29520 26624 28512
1865 35904 31168 29520 26624 28512
1866 34880 30784 29520 26624 28512
1867 34624 31168 29520 26624 28512
1868 33216 30720 29520 26624 28512
1869 32896 30848 29520 26624 28512
1870 33088 31168 29536 26640 28496
1871 31424 31360 29536 26640 28496
1872 32320 31552 29536 26640 28496
1873 30656 31808 29536 26640 28496
1874 30464 31168 29536 26640 28496
1875 30400 31296 29536 26640 28496
1876 29440 31104 29536 26640 28496
1877 30208 31616 29536 26640 28496
1878 30720 31360 29536 26640 28496
1879 30400 31296 29536 26640 28496
1880 30016 31744 29536 26640 28496
1881 30592 31552 29536 26640 28496
1882 30464 31424 29536 26640 28496
1883 30912 31680 29536 26640 28496
1884 30592 31680 29536 26640 28496
1885 30528 32128 29536 26640 28496
1886 30400 32064 29536 26640 28496
1887 30592 31936 29536 26640 28496
1888 30912 31872 29536 26640 28496
1889 30592 32000 29536 26640 28496
1890 31232 32128 29632 26688 28448
1891 30720 32768 29632 26688 28448
1892 31872 32576 29632 26688 28448
1893 30656 32576 29632 26688 28448
1894 30528 32576 29632 26688 28448
1895 29760 32896 29632 26688 28448
1896 30400 33024 29632 26688 28448
1897 31168 33280 29632 26688 28448
1898 30272 32640 29632 26688 28448
1899 29760 32960 29632 26688 28448
1900 30912 33792 29600 26672 28464
1901 29184 33472 29600 26672 28464
1902 29184 33472 29600 26672 28464
1903 29632 33920 29600 26672 28464
1904 29760 33728 29600 26672 28464
1905 29632 33472 29600 26672 28464
1906 32704 33792 29600 26672 28464
1907 40896 33216 29600 26672 28464
1908 51520 33408 29600 26672 28464
1909 51072 33216 29600 26672 28464
1910 30976 32960 29600 26640 28480
1911 23360 33152 29600 26640 28480
1912 21440 33536 29600 26640 28480
1913 28864 33664 29600 26640 28480
1914 33600 33472 29600 26640 28480
1915 32448 33408 29600 26640 28480
1916 31168 33088 29600 26640 28480
1917 30336 32768 29600 26640 28480
1918 31040 32640 29600 26640 28480
1919 30848 32448 29600 26640 28480
1920 31616 32896 29632 26720 28544
1921 30848 32768 29632 26720 28544
1922 31424 32896 29632 26720 28544
1923 31424 32896 29632 26720 28544
1924 31808 33344 29632 26720 28544
1925 31680 33216 29632 26720 28544
1926 32320 33088 29632 26720 28544
1927 33088 33152 29632 26720 28544
1928 33152 32960 29632 26720 28544
1929 33920 32704 29632 26720 28544
1930 34816 32256 29552 26704 28528
1931 34816 32896 29552 26704 28528
1932 35008 32384 29552 26704 28528
1933 35328 32448 29552 26704 28528
1934 35072 32576 29552 26704 28528
1935 35328 32768 29552 26704 28528
1936 34496 32704 29552 26704 28528
1937 34560 33024 29552 26704 28528
1938 34112 32960 29552 26704 28528
1939 33152 32768 29552 26704 28528
1940 32896 32512 29552 26704 28528
1941 31936 32192 29552 26704 28528
1942 30656 32320 29552 26704 28528
1943 30976 32320 29552 26704 28528
1944 29376 31552 29552 26704 28528
1945 29440 31424 29552 26704 28528
1946 29632 31744 29552 26704 28528
1947 29120 31488 29552 26704 28528
1948 29696 32000 29552 26704 28528
1949 29760 31680 29552 26704 28528
1950 29120 31744 29552 26720 28528
1951 29440 31808 29552 26720 28528
1952 29376 31424 29552 26720 28528
1953 28992 31232 29552 26720 28528
1954 29504 31104 29552 26720 28528
1955 29312 30976 29552 26720 28528
1956 29120 31296 29552 26720 28528
1957 29760 31488 29552 26720 28528
1958 29504 31360 29552 26720 28528
1959 30528 31488 29552 26720 28528
1960 30016 31104 29632 26592 28480
1961 30144 30912 29632 26592 28480
1962 29632 30592 29632 26592 28480
1963 30144 31424 29632 26592 28480
1964 30976 31040 29632 26592 28480
1965 29440 31232 29632 26592 28480
1966 29184 30656 29632 26592 28480
1967 30080 30656 29632 26592 28480
1968 30400 30848 29632 26592 28480
1969 29184 31168 29632 26592 28480
1970 29120 31744 29648 26592 28480
1971 29440 31680 29648 26592 28480
1972 27200 31360 29648 26592 28480
1973 28928 31104 29648 26592 28480
1974 28928 31168 29648 26592 28480
1975 28800 31104 29648 26592 28480
1976 29632 31488 29648 26592 28480
1977 35456 31296 29648 26592 28480
1978 46656 31232 29648 26592 28480
1979 50048 30720 29648 26592 28480
1980 34048 31168 29648 26592 28480
1981 24960 31424 29648 26592 28480
1982 20160 31296 29648 26592 28480
1983 26432 31744 29648 26592 28480
1984 31296 32064 29648 26592 28480
1985 31808 31936 29648 26592 28480
1986 30080 31872 29648 26592 28480
1987 29632 32256 29648 26592 28480
1988 29120 31744 29648 26592 28480
1989 29696 31680 29648 26592 28480
1990 29888 31232 29664 26624 28496
1991 30208 31680 29664 26624 28496
1992 30720 31680 29664 26624 28496
1993 30848 31744 29664 26624 28496
1994 30464 31808 29664 26624 28496
1995 30720 31872 29664 26624 28496
1996 31360 32256 29664 26624 28496
1997 31936 32384 29664 26624 28496
1998 32576 32448 29664 26624 28496
1999 32320 32064 29664 26624 28496
2000 33472 32576 29600 26688 28576
2001 33408 31616 29600 26688 28576
2002 34112 31936 29600 26688 28576
2003 34048 32064 29600 26688 28576
2004 34560 31808 29600 26688 28576
2005 34624 31616 29600 26688 28576
2006 33472 31488 29600 26688 28576
2007 33920 31488 29600 26688 28576
2008 33536 32256 29600 26688 28576
2009 32768 31872 29600 26688 28576
2010 31680 32192 29616 26640 28544
2011 31104 32448 29616 26640 28544
2012 30464 32320 29616 26640 28544
2013 29632 31872 29616 26640 28544
2014 29184 31872 29616 26640 28544
2015 29184 31808 29616 26640 28544
2016 28480 32192 29616 26640 28544
2017 28160 32384 29616 26640 28544
2018 28288 32512 29616 26640 28544
2019 27520 32384 29616 26640 28544
2020 28928 32000 29616 26624 28512
2021 28032 32384 29616 26624 28512
2022 28672 32384 29616 26624 28512
2023 28288 32064 29616 26624 28512
2024 28992 32448 29616 26624 28512
2025 29568 32192 29616 26624 28512
2026 29376 31808 29616 26624 28512
2027 28992 31808 29616 26624 28512
2028 29632 31808 29616 26624 28512
2029 28736 31936 29616 26624 28512
2030 29376 31872 29568 26656 28448
2031 29696 31488 29568 26656 28448
2032 29568 31808 29568 26656 28448
2033 29696 31872 29568 26656 28448
2034 30336 31680 29568 26656 28448
2035 29696 32192 29568 26656 28448
2036 28992 31616 29568 26656 28448
2037 29632 31680 29568 26656 28448
2038 29952 31296 29568 26656 28448
2039 29696 31616 29568 26656 28448
2040 29248 31616 29568 26656 28448
2041 28608 31552 29568 26656 28448
2042 28032 31616 29568 26656 28448
2043 28160 31936 29568 26656 28448
2044 28352 32320 29568 26656 28448
2045 29312 32000 29568 26656 28448
2046 28416 32256 29568 26656 28448
2047 32256 31744 29568 26656 28448
2048 42112 32256 29568 26656 28448
2049 49216 32000 29568 26656 28448
2050 43392 31872 29616 26624 28432
2051 29184 32128 29616 26624 28432
2052 22912 32192 29616 26624 28432
2053 23168 32768 29616 26624 28432
2054 29440 32896 29616 26624 28432
2055 32256 32768 29616 26624 28432
2056 31168 32320 29616 26624 28432
2057 30144 32640 29616 26624 28432
2058 30464 32320 29616 26624 28432
2059 30400 32128 29616 26624 28432
2060 30016 32000 29616 26656 28448
2061 30400 32128 29616 26656 28448
2062 31040 32256 29616 26656 28448
2063 30848 32448 29616 26656 28448
2064 31680 32192 29616 26656 28448
2065 31424 32384 29616 26656 28448
2066 31808 32512 29616 26656 28448
2067 32704 32832 29616 26656 28448
2068 33088 32704 29616 26656 28448
2069 33600 32128 29616 26656 28448
2070 33856 32192 29632 26624 28480
2071 33792 32384 29632 26624 28480
2072 34880 31744 29632 26624 28480
2073 34624 31808 29632 26624 28480
2074 35136 31424 29632 26624 28480
2075 35520 31296 29632 26624 28480
2076 35136 31552 29632 26624 28480
2077 34240 32000 29632 26624 28480
2078 34560 32064 29632 26624 28480
2079 34624 32384 29632 26624 28480
2080 33344 32128 29632 26624 28480
2081 32896 31680 29632 26624 28480
2082 31936 32192 29632 26624 28480
2083 31168 32384 29632 26624 28480
2084 30592 31808 29632 26624 28480
2085 30336 31872 29632 26624 28480
2086 30016 32000 29632 26624 28480
2087 29888 31744 29632 26624 28480
2088 29696 32064 29632 26624 28480
2089 30400 31936 29632 26624 28480
2090 29440 32192 29680 26624 28496
2091 30592 32000 29680 26624 28496
2092 30080 31744 29680 26624 28496
2093 30272 32128 29680 26624 28496
2094 30592 32192 29680 26624 28496
2095 30080 32384 29680 26624 28496
2096 30400 31872 29680 26624 28496
2097 30400 32256 29680 26624 28496
2098 30144 32192 29680 26624 28496
2099 30528 32384 29680 26624 28496
2100 31104 32704 29664 26672 28512
2101 31104 32704 29664 26672 28512
2102 30912 32256 29664 26672 28512
2103 31040 31936 29664 26672 28512
2104 31360 32256 29664 26672 28512
2105 30336 32704 29664 26672 28512
2106 30336 32960 29664 26672 28512
2107 30656 32512 29664 26672 28512
2108 31232 32512 29664 26672 28512
2109 30208 32576 29664 26672 28512
2110 30592 33088 29632 26624 28448
2111 29952 32832 29632 26624 28448
2112 30016 32896 29632 26624 28448
2113 29248 32704 29632 26624 28448
2114 29504 33088 29632 26624 28448
2115 29952 33152 29632 26624 28448
2116 29760 33024 29632 26624 28448
2117 32576 32896 29632 26624 28448
2118 40064 32896 29632 26624 28448
2119 49792 32704 29632 26624 28448
2120 50112 32512 29600 26608 28464
2121 32448 32064 29600 26608 28464
2122 24576 32320 29600 26608 28464
2123 20928 32448 29600 26608 28464
2124 27968 32576 29600 26608 28464
2125 32704 32640 29600 26608 28464
2126 32256 32448 29600 26608 28464
2127 30976 32576 29600 26608 28464
2128 30848 32192 29600 26608 28464
2129 31040 32448 29600 26608 28464
2130 31360 32192 29632 26608 28464
2131 31040 32192 29632 26608 28464
2132 31296 32448 29632 26608 28464
2133 31232 32256 29632 26608 28464
2134 31744 32000 29632 26608 28464
2135 31616 31872 29632 26608 28464
2136 31488 32704 29632 26608 28464
2137 33472 33408 29632 26608 28464
2138 32832 33344 29632 26608 28464
2139 33664 33216 29632 26608 28464
2140 34560 32896 29632 26608 28464
2141 34496 32896 29632 26608 28464
2142 35200 33088 29632 26608 28464
2143 35200 32384 29632 26608 28464
2144 35648 32640 29632 26608 28464
2145 35776 32832 29632 26608 28464
2146 35392 32768 29632 26608 28464
2147 35520 32576 29632 26608 28464
2148 35264 32576 29632 26608 28464
2149 34560 32512 29632 26608 28464
2150 33216 32768 29568 26656 28448
2151 33344 32832 29568 26656 28448
2152 32512 33088 29568 26656 28448
2153 31680 32768 29568 26656 28448
2154 30912 32704 29568 26656 28448
2155 30208 32192 29568 26656 28448
2156 29952 32640 29568 26656 28448
2157 30080 32832 29568 26656 28448
2158 29696 32256 29568 26656 28448
2159 29248 32192 29568 26656 28448
2160 30528 32192 29616 26656 28480
2161 30144 32256 29616 26656 28480
2162 29632 32192 29616 26656 28480
2163 30272 32000 29616 26656 28480
2164 30208 32512 29616 26656 28480
2165 30336 32704 29616 26656 28480
2166 30400 32512 29616 26656 28480
2167 30400 32256 29616 26656 28480
2168 30464 32064 29616 26656 28480
2169 30144 32064 29616 26656 28480
2170 29760 32064 29648 26640 28480
2171 30272 31552 29648 26640 28480
2172 30656 31424 29648 26640 28480
2173 31296 32000 29648 26640 28480
2174 31104 32128 29648 26640 28480
2175 31104 31744 29648 26640 28480
2176 30464 32064 29648 26640 28480
2177 30080 32064 29648 26640 28480
2178 30464 32000 29648 26640 28480
2179 30784 31808 29648 26640 28480
2180 30016 32192 29728 26624 28448
2181 30656 32000 29728 26624 28448
2182 29888 32896 29728 26624 28448
2183 29632 32384 29728 26624 28448
2184 29696 32320 29728 26624 28448
2185 29312 31936 29728 26624 28448
2186 28672 31616 29728 26624 28448
2187 30272 32640 29728 26624 28448
2188 32896 32512 29728 26624 28448
2189 40960 32192 29728 26624 28448
2190 49728 32000 29696 26608 28464
2191 50688 31936 29696 26608 28464
2192 30528 31680 29696 26608 28464
2193 23488 31872 29696 26608 28464
2194 21056 32128 29696 26608 28464
2195 28608 32704 29696 26608 28464
2196 33280 32768 29696 26608 28464
2197 31808 32256 29696 26608 28464
2198 31744 31936 29696 26608 28464
2199 30592 32512 29696 26608 28464
2200 31296 32320 29696 26608 28464
2201 30272 32512 29696 26608 28464
2202 31104 32128 29696 26608 28464
2203 31488 32128 29696 26608 28464
2204 31360 32000 29696 26608 28464
2205 31616 32320 29696 26608 28464
2206 32384 32128 29696 26608 28464
2207 32576 32064 29696 26608 28464
2208 32512 32256 29696 26608 28464
2209 32960 31808 29696 26608 28464
2210 33920 32320 29600 26704 28496
2211 34624 32320 29600 26704 28496
2212 34112 32000 29600 26704 28496
2213 35264 32576 29600 26704 28496
2214 35648 32768 29600 26704 28496
2215 35840 32192 29600 26704 28496
2216 35456 32256 29600 26704 28496
2217 35904 32128 29600 26704 28496
2218 35008 32128 29600 26704 28496
2219 35072 32064 29600 26704 28496
2220 34560 32640 29568 26624 28384
2221 33856 32256 29568 26624 28384
2222 32576 32128 29568 26624 28384
2223 32192 31616 29568 26624 28384
2224 31040 31680 29568 26624 28384
2225 31488 32448 29568 26624 28384
2226 30592 32256 29568 26624 28384
2227 30144 32128 29568 26624 28384
2228 29952 32320 29568 26624 28384
2229 29632 32256 29568 26624 28384
2230 29888 32192 29584 26608 28416
2231 29440 32192 29584 26608 28416
2232 29184 32000 29584 26608 28416
2233 29568 32064 29584 26608 28416
2234 28992 31936 29584 26608 28416
2235 30656 32000 29584 26608 28416
2236 29824 31680 29584 26608 28416
2237 29952 32128 29584 26608 28416
2238 30016 31872 29584 26608 28416
2239 30272 32512 29584 26608 28416
2240 30144 31808 29584 26608 28416
2241 29952 31872 29584 26608 28416
2242 30400 32192 29584 26608 28416
2243 30848 32448 29584 26608 28416
2244 30656 32128 29584 26608 28416
2245 30400 31872 29584 26608 28416
2246 31040 31936 29584 26608 28416
2247 29632 31488 29584 26608 28416
2248 29824 32128 29584 26608 28416
2249 30528 31936 29584 26608 28416
2250 29632 31232 29552 26640 28448
2251 30720 32064 29552 26640 28448
2252 29760 32640 29552 26640 28448
2253 29504 32640 29552 26640 28448
2254 29120 32768 29552 26640 28448
2255 29184 32768 29552 26640 28448
2256 29248 32832 29552 26640 28448
2257 28032 32576 29552 26640 28448
2258 30016 32448 29552 26640 28448
2259 33152 32448 29552 26640 28448
2260 42560 32640 29536 26656 28544
2261 51456 32576 29536 26656 28544
2262 46528 31872 29536 26656 28544
2263 27904 32064 29536 26656 28544
2264 21184 32704 29536 26656 28544
2265 23424 32448 29536 26656 28544
2266 30144 32832 29536 26656 28544
2267 32896 32512 29536 26656 28544
2268 31872 32512 29536 26656 28544
2269 31040 32576 29536 26656 28544
2270 30080 32192 29568 26608 28544
2271 30912 32256 29568 26608 28544
2272 31168 31936 29568 26608 28544
2273 31424 32000 29568 26608 28544
2274 30336 31488 29568 26608 28544
2275 30912 30976 29568 26608 28544
2276 32064 31872 29568 26608 28544
2277 32448 31552 29568 26608 28544
2278 32000 32192 29568 26608 28544
2279 32000 31936 29568 26608 28544
2280 33408 32320 29616 26624 28496
2281 33216 31808 29616 26624 28496
2282 34112 31936 29616 26624 28496
2283 34944 32128 29616 26624 28496
2284 34816 31808 29616 26624 28496
2285 35648 31488 29616 26624 28496
2286 34944 30976 29616 26624 28496
2287 35328 31168 29616 26624 28496
2288 34560 31552 29616 26624 28496
2289 35008 31360 29616 26624 28496
2290 34688 32128 29568 26592 28416
2291 33856 31872 29568 26592 28416
2292 33280 32064 29568 26592 28416
2293 32960 32576 29568 26592 28416
2294 31936 32704 29568 26592 28416
2295 31616 32640 29568 26592 28416
2296 30848 32128 29568 26592 28416
2297 30144 32064 29568 26592 28416
2298 29760 31744 29568 26592 28416
2299 28992 32128 29568 26592 28416
2300 29312 31808 29568 26592 28416
2301 29632 31744 29568 26592 28416
2302 28928 31936 29568 26592 28416
2303 29632 31872 29568 26592 28416
2304 30144 32000 29568 26592 28416
2305 29376 32320 29568 26592 28416
2306 29696 32320 29568 26592 28416
2307 29824 32000 29568 26592 28416
2308 30080 32128 29568 26592 28416
2309 29568 31936 29568 26592 28416
2310 29568 31936 29600 26624 28480
2311 29760 31808 29600 26624 28480
2312 30464 32000 29600 26624 28480
2313 28736 31232 29600 26624 28480
2314 30464 31616 29600 26624 28480
2315 30912 31872 29600 26624 28480
2316 30976 32512 29600 26624 28480
2317 30080 32384 29600 26624 28480
2318 30080 32064 29600 26624 28480
2319 29888 32128 29600 26624 28480
2320 30080 32192 29616 26656 28480
2321 30464 32128 29616 26656 28480
2322 30144 32064 29616 26656 28480
2323 29120 31872 29616 26656 28480
2324 28608 31680 29616 26656 28480
2325 28672 32000 29616 26656 28480
2326 29440 32640 29616 26656 28480
2327 28992 32704 29616 26656 28480
2328 28992 32640 29616 26656 28480
2329 30080 33280 29616 26656 28480
2330 35776 32960 29632 26592 28416
2331 45632 32960 29632 26592 28416
2332 50368 32832 29632 26592 28416
2333 38336 32640 29632 26592 28416
2334 24832 33152 29632 26592 28416
2335 19264 33024 29632 26592 28416
2336 24768 32832 29632 26592 28416
2337 31936 33344 29632 26592 28416
2338 33024 33536 29632 26592 28416
2339 31488 32896 29632 26592 28416
2340 30272 32896 29632 26592 28416
2341 30528 33600 29632 26592 28416
2342 30784 33728 29632 26592 28416
2343 31168 33472 29632 26592 28416
2344 31104 33344 29632 26592 28416
2345 30592 33088 29632 26592 28416
2346 31360 33280 29632 26592 28416
2347 32064 33152 29632 26592 28416
2348 31616 32960 29632 26592 28416
2349 31680 32192 29632 26592 28416
2350 33152 32832 29568 26560 28416
2351 33536 33280 29568 26560 28416
2352 34304 33152 29568 26560 28416
2353 34560 32832 29568 26560 28416
2354 34240 32896 29568 26560 28416
2355 35648 32832 29568 26560 28416
2356 35328 32832 29568 26560 28416
2357 34752 32512 29568 26560 28416
2358 35712 32832 29568 26560 28416
2359 34816 32832 29568 26560 28416
2360 34944 32640 29584 26560 28448
2361 34304 32576 29584 26560 28448
2362 33536 32448 29584 26560 28448
2363 32320 32064 29584 26560 28448
2364 32320 32768 29584 26560 28448
2365 31936 33024 29584 26560 28448
2366 31936 33216 29584 26560 28448
2367 30912 33024 29584 26560 28448
2368 31104 32832 29584 26560 28448
2369 29440 32512 29584 26560 28448
2370 28608 31872 29600 26688 28448
2371 29184 31744 29600 26688 28448
2372 29440 32000 29600 26688 28448
2373 29184 32320 29600 26688 28448
2374 29888 32576 29600 26688 28448
2375 29568 32768 29600 26688 28448
2376 30592 33472 29600 26688 28448
2377 28992 33024 29600 26688 28448
2378 30784 33152 29600 26688 28448
2379 29824 32896 29600 26688 28448
2380 30016 32768 29584 26672 28448
2381 29824 32192 29584 26672 28448
2382 29504 31488 29584 26672 28448
2383 30016 32256 29584 26672 28448
2384 29824 32384 29584 26672 28448
2385 31104 32256 29584 26672 28448
2386 30080 31488 29584 26672 28448
2387 30336 31168 29584 26672 28448
2388 29696 32064 29584 26672 28448
2389 29760 32640 29584 26672 28448
2390 30080 32768 29648 26640 28480
2391 29632 33088 29648 26640 28480
2392 30144 32768 29648 26640 28480
2393 29632 32576 29648 26640 28480
2394 28992 32448 29648 26640 28480
2395 28032 31936 29648 26640 28480
2396 28608 31552 29648 26640 28480
2397 28096 31232 29648 26640 28480
2398 27904 30656 29648 26640 28480
2399 28224 31296 29648 26640 28480
2400 30016 31808 29648 26640 28480
2401 36864 32832 29648 26640 28480
2402 45888 32384 29648 26640 28480
2403 50176 32256 29648 26640 28480
2404 37184 32256 29648 26640 28480
2405 24768 32256 29648 26640 28480
2406 19584 32192 29648 26640 28480
2407 25856 31616 29648 26640 28480
2408 30720 31744 29648 26640 28480
2409 31808 31808 29648 26640 28480
2410 30848 31680 29600 26624 28480
2411 30144 31872 29600 26624 28480
2412 29696 32128 29600 26624 28480
2413 30208 32064 29600 26624 28480
2414 30080 32192 29600 26624 28480
2415 31040 32576 29600 26624 28480
2416 30336 32256 29600 26624 28480
2417 30528 32064 29600 26624 28480
2418 30912 31872 29600 26624 28480
2419 31296 30912 29600 26624 28480
2420 31424 30848 29680 26672 28464
2421 32768 31680 29680 26672 28464
2422 32448 31168 29680 26672 28464
2423 32704 31104 29680 26672 28464
2424 33216 31552 29680 26672 28464
2425 33920 31872 29680 26672 28464
2426 33856 31872 29680 26672 28464
2427 34432 32000 29680 26672 28464
2428 33856 31808 29680 26672 28464
2429 34944 32832 29680 26672 28464
2430 34432 32704 29664 26576 28432
2431 33920 32640 29664 26576 28432
2432 33600 32768 29664 26576 28432
2433 32512 32064 29664 26576 28432
2434 32064 31552 29664 26576 28432
2435 30400 31168 29664 26576 28432
2436 30016 31552 29664 26576 28432
2437 29952 32256 29664 26576 28432
2438 28992 31872 29664 26576 28432
2439 28800 32384 29664 26576 28432
2440 28160 32256 29728 26656 28512
2441 28224 33280 29728 26656 28512
2442 29376 33216 29728 26656 28512
2443 28992 32704 29728 26656 28512
2444 28672 32128 29728 26656 28512
2445 28992 32320 29728 26656 28512
2446 28672 31936 29728 26656 28512
2447 28288 31808 29728 26656 28512
2448 28544 31936 29728 26656 28512
2449 28672 32384 29728 26656 28512
2450 28864 32640 29728 26656 28512
2451 29696 33280 29728 26656 28512
2452 29248 33216 29728 26656 28512
2453 30656 34048 29728 26656 28512
2454 30528 33984 29728 26656 28512
2455 30144 33024 29728 26656 28512
2456 30016 32576 29728 26656 28512
2457 30016 32576 29728 26656 28512
2458 29760 32256 29728 26656 28512
2459 29632 32128 29728 26656 28512
2460 29312 32448 29696 26640 28528
2461 29440 32064 29696 26640 28528
2462 30912 33536 29696 26640 28528
2463 29952 32768 29696 26640 28528
2464 28864 32384 29696 26640 28528
2465 28480 32448 29696 26640 28528
2466 28288 32256 29696 26640 28528
2467 28480 32512 29696 26640 28528
2468 29376 32896 29696 26640 28528
2469 28480 32448 29696 26640 28528
2470 29184 32256 29680 26672 28496
2471 33536 32384 29680 26672 28496
2472 42688 32768 29680 26672 28496
2473 49792 32704 29680 26672 28496
2474 42816 33024 29680 26672 28496
2475 27968 33152 29680 26672 28496
2476 22080 33024 29680 26672 28496
2477 23424 32640 29680 26672 28496
2478 30080 32704 29680 26672 28496
2479 31936 32832 29680 26672 28496
2480 31168 33024 29632 26688 28480
2481 30464 32832 29632 26688 28480
2482 30016 32640 29632 26688 28480
2483 30400 32256 29632 26688 28480
2484 30272 32704 29632 26688 28480
2485 31360 32384 29632 26688 28480
2486 30912 32960 29632 26688 28480
2487 31872 33472 29632 26688 28480
2488 31808 33664 29632 26688 28480
2489 32064 33536 29632 26688 28480
2490 32128 32640 29648 26656 28496
2491 32000 32256 29648 26656 28496
2492 33088 32448 29648 26656 28496
2493 33728 32384 29648 26656 28496
2494 33856 32192 29648 26656 28496
2495 34688 32768 29648 26656 28496
2496 34368 32576 29648 26656 28496
2497 35776 33344 29648 26656 28496
2498 35584 33664 29648 26656 28496
2499 35520 33600 29648 26656 28496
2500 35456 33216 29648 26656 28496
2501 34880 33152 29648 26656 28496
2502 34048 32384 29648 26656 28496
2503 33216 32384 29648 26656 28496
2504 32704 32320 29648 26656 28496
2505 31808 32256 29648 26656 28496
2506 32576 33536 29648 26656 28496
2507 30848 33280 29648 26656 28496
2508 30912 32640 29648 26656 28496
2509 29184 32576 29648 26656 28496
2510 30336 33792 29600 26704 28544
2511 30656 33728 29600 26704 28544
2512 29760 33280 29600 26704 28544
2513 29952 32832 29600 26704 28544
2514 29952 32704 29600 26704 28544
2515 29184 32128 29600 26704 28544
2516 29056 32128 29600 26704 28544
2517 30848 32320 29600 26704 28544
2518 30016 32768 29600 26704 28544
2519 29888 31936 29600 26704 28544
2520 30592 32448 29568 26624 28512
2521 30144 32256 29568 26624 28512
2522 30848 32768 29568 26624 28512
2523 30528 32640 29568 26624 28512
2524 30336 32704 29568 26624 28512
2525 31232 32768 29568 26624 28512
2526 30784 32320 29568 26624 28512
2527 31680 32256 29568 26624 28512
2528 30208 31616 29568 26624 28512
2529 30848 31424 29568 26624 28512
2530 30720 31552 29568 26640 28512
2531 30016 31552 29568 26640 28512
2532 30272 31552 29568 26640 28512
2533 30720 31616 29568 26640 28512
2534 30592 32000 29568 26640 28512
2535 30080 32576 29568 26640 28512
2536 30144 32384 29568 26640 28512
2537 29632 32576 29568 26640 28512
2538 30016 32256 29568 26640 28512
2539 29760 31680 29568 26640 28512
2540 29312 31616 29584 26672 28512
2541 30272 31680 29584 26672 28512
2542 34112 31424 29584 26672 28512
2543 43840 31488 29584 26672 28512
2544 51840 32064 29584 26672 28512
2545 46592 32000 29584 26672 28512
2546 28224 31680 29584 26672 28512
2547 20736 32064 29584 26672 28512
2548 23104 32960 29584 26672 28512
2549 30912 32768 29584 26672 28512
2550 32896 32320 29600 26592 28544
2551 31552 31744 29600 26592 28544
2552 30656 32128 29600 26592 28544
2553 30912 32064 29600 26592 28544
2554 30336 32000 29600 26592 28544
2555 31104 32256 29600 26592 28544
2556 30528 32128 29600 26592 28544
2557 31040 32384 29600 26592 28544
2558 32000 32640 29600 26592 28544
2559 31744 32960 29600 26592 28544
2560 32704 33408 29600 26592 28544
2561 32320 32960 29600 26592 28544
2562 33152 32768 29600 26592 28544
2563 33024 32000 29600 26592 28544
2564 33536 32000 29600 26592 28544
2565 33728 31936 29600 26592 28544
2566 34944 31936 29600 26592 28544
2567 35328 31872 29600 26592 28544
2568 36224 32384 29600 26592 28544
2569 35968 32192 29600 26592 28544
2570 36032 32320 29600 26576 28512
2571 35968 32896 29600 26576 28512
2572 35200 32768 29600 26576 28512
2573 34624 32832 29600 26576 28512
2574 34304 33088 29600 26576 28512
2575 33536 32448 29600 26576 28512
2576 33344 32320 29600 26576 28512
2577 31808 31552 29600 26576 28512
2578 31680 31040 29600 26576 28512
2579 30912 31232 29600 26576 28512
2580 30592 31040 29600 26640 28496
2581 30016 31424 29600 26640 28496
2582 29440 31296 29600 26640 28496
2583 29760 31360 29600 26640 28496
2584 29568 31488 29600 26640 28496
2585 30656 32384 29600 26640 28496
2586 30144 32448 29600 26640 28496
2587 30272 32384 29600 26640 28496
2588 30336 32000 29600 26640 28496
2589 30400 31616 29600 26640 28496
2590 30208 31616 29600 26592 28512
2591 30336 31168 29600 26592 28512
2592 30144 31680 29600 26592 28512
2593 30336 30784 29600 26592 28512
2594 30144 31040 29600 26592 28512
2595 29760 31040 29600 26592 28512
2596 30016 31616 29600 26592 28512
2597 30912 32064 29600 26592 28512
2598 30464 31616 29600 26592 28512
2599 31552 32000 29600 26592 28512
2600 31168 32256 29600 26592 28512
2601 31360 32192 29600 26592 28512
2602 30528 32000 29600 26592 28512
2603 29312 31808 29600 26592 28512
2604 30528 31872 29600 26592 28512
2605 30272 32000 29600 26592 28512
2606 29696 31680 29600 26592 28512
2607 29888 32320 29600 26592 28512
2608 29184 32320 29600 26592 28512
2609 28928 32832 29600 26592 28512
2610 28864 32576 29568 26608 28528
2611 29056 33088 29568 26608 28528
2612 29568 32512 29568 26608 28528
2613 30336 32704 29568 26608 28528
2614 34176 32640 29568 26608 28528
2615 44096 32832 29568 26608 28528
2616 51520 32768 29568 26608 28528
2617 40768 32512 29568 26608 28528
2618 26304 32768 29568 26608 28528
2619 19520 32640 29568 26608 28528
2620 24896 33280 29600 26656 28544
2621 31360 32832 29600 26656 28544
2622 33408 33472 29600 26656 28544
2623 31360 32640 29600 26656 28544
2624 30272 32128 29600 26656 28544
2625 31104 32064 29600 26656 28544
2626 30528 32384 29600 26656 28544
2627 31040 32064 29600 26656 28544
2628 31296 33024 29600 26656 28544
2629 30912 32576 29600 26656 28544
2630 31232 32704 29568 26624 28448
2631 31744 33280 29568 26624 28448
2632 31616 32832 29568 26624 28448
2633 32576 33088 29568 26624 28448
2634 33216 33408 29568 26624 28448
2635 33408 33216 29568 26624 28448
2636 33472 32384 29568 26624 28448
2637 34048 32192 29568 26624 28448
2638 34816 31872 29568 26624 28448
2639 34496 31680 29568 26624 28448
2640 35328 31616 29504 26656 28464
2641 35648 31936 29504 26656 28464
2642 35584 31872 29504 26656 28464
2643 35136 31552 29504 26656 28464
2644 33792 31104 29504 26656 28464
2645 34304 30848 29504 26656 28464
2646 34496 30272 29504 26656 28464
2647 33664 29504 29504 26656 28464
2648 32640 28608 29504 26656 28464
2649 31808 27200 29504 26656 28464
2650 31168 26048 29472 26688 28480
2651 31104 26176 29472 26688 28480
2652 30528 25024 29472 26688 28480
2653 29760 23808 29472 26688 28480
2654 30592 23296 29472 26688 28480
2655 29824 22336 29472 26688 28480
2656 30336 22016 29472 26688 28480
2657 30784 22272 29472 26688 28480
2658 30528 22336 29472 26688 28480
2659 30016 21952 29472 26688 28480
2660 30528 21632 29472 26688 28480
2661 30016 20864 29472 26688 28480
2662 29312 20736 29472 26688 28480
2663 30208 21120 29472 26688 28480
2664 30080 21504 29472 26688 28480
2665 30784 21760 29472 26688 28480
2666 30400 21632 29472 26688 28480
2667 30336 21952 29472 26688 28480
2668 30016 22144 29472 26688 28480
2669 30336 22464 29472 26688 28480
2670 30336 22336 29568 26688 28544
2671 30464 22592 29568 26688 28544
2672 31104 23232 29568 26688 28544
2673 30144 23040 29568 26688 28544
2674 31424 23104 29568 26688 28544
2675 30272 22464 29568 26688 28544
2676 29376 22784 29568 26688 28544
2677 30336 22976 29568 26688 28544
2678 30400 23040 29568 26688 28544
2679 29632 23296 29568 26688 28544
2680 29888 23296 29568 26688 28496
2681 29376 24320 29568 26688 28496
2682 29312 24448 29568 26688 28496
2683 29760 24192 29568 26688 28496
2684 29824 24384 29568 26688 28496
2685 29504 24384 29568 26688 28496
2686 30272 24320 29568 26688 28496
2687 33856 24768 29568 26688 28496
2688 42048 24512 29568 26688 28496
2689 52032 25216 29568 26688 28496
2690 49664 24960 29648 26656 28496
2691 31616 26048 29648 26656 28496
2692 23552 26176 29648 26656 28496
2693 22336 25920 29648 26656 28496
2694 30144 25920 29648 26656 28496
2695 33856 25472 29648 26656 28496
2696 32832 26560 29648 26656 28496
2697 32000 26496 29648 26656 28496
2698 31744 26048 29648 26656 28496
2699 31552 26560 29648 26656 28496
2700 31616 26752 29824 26304 28320
2701 32064 26752 29824 26304 28320
2702 31488 26496 29824 26304 28320
2703 31872 27136 29824 26304 28320
2704 31872 26752 29824 26304 28320
2705 32832 27392 29824 26304 28320
2706 32256 27456 29824 26304 28320
2707 33088 27264 29824 26304 28320
2708 33536 27328 29824 26304 28320
2709 34048 27648 29824 26304 28320
2710 34368 27712 29824 26304 28320
2711 34880 28096 29824 26304 28320
2712 35584 27968 29824 26304 28320
2713 35904 27904 29824 26304 28320
2714 35648 27776 29824 26304 28320
2715 35456 27712 29824 26304 28320
2716 35008 27712 29824 26304 28320
2717 35008 27648 29824 26304 28320
2718 34944 27776 29824 26304 28320
2719 33280 27328 29824 26304 28320
2720 33984 28672 29872 26368 28336
2721 33344 29376 29872 26368 28336
2722 32576 29184 29872 26368 28336
2723 30784 28544 29872 26368 28336
2724 30784 29568 29872 26368 28336
2725 30528 29632 29872 26368 28336
2726 29952 29504 29872 26368 28336
2727 29504 29312 29872 26368 28336
2728 29952 29504 29872 26368 28336
2729 29568 28928 29872 26368 28336
2730 29184 29056 29840 26400 28320
2731 28864 28928 29840 26400 28320
2732 28352 28544 29840 26400 28320
2733 28416 28416 29840 26400 28320
2734 29632 29248 29840 26400 28320
2735 29504 28928 29840 26400 28320
2736 29824 29760 29840 26400 28320
2737 30336 29952 29840 26400 28320
2738 30464 29824 29840 26400 28320
2739 29952 29952 29840 26400 28320
2740 30080 29952 29952 26304 28192
2741 29824 30016 29952 26304 28192
2742 30016 29888 29952 26304 28192
2743 29888 29952 29952 26304 28192
2744 30592 30080 29952 26304 28192
2745 29312 29504 29952 26304 28192
2746 30272 29632 29952 26304 28192
2747 30720 30272 29952 26304 28192
2748 30336 30144 29952 26304 28192
2749 29312 30208 29952 26304 28192
2750 29952 29440 30016 26384 28288
2751 31040 30400 30016 26384 28288
2752 30528 30144 30016 26384 28288
2753 30656 29824 30016 26384 28288
2754 29248 29952 30016 26384 28288
2755 29632 29696 30016 26384 28288
2756 29120 29376 30016 26384 28288
2757 28608 28800 30016 26384 28288
2758 28736 28608 30016 26384 28288
2759 29120 29056 30016 26384 28288
2760 31296 30592 30016 26384 28288
2761 38144 30784 30016 26384 28288
2762 48704 30144 30016 26384 28288
2763 52800 30336 30016 26384 28288
2764 37824 30272 30016 26384 28288
2765 24640 29760 30016 26384 28288
2766 18752 29376 30016 26384 28288
2767 26240 29568 30016 26384 28288
2768 32896 30080 30016 26384 28288
2769 33920 30400 30016 26384 28288
2770 31488 29632 30208 26432 28288
2771 29824 29376 30208 26432 28288
2772 30656 30336 30208 26432 28288
2773 31424 31040 30208 26432 28288
2774 32128 31680 30208 26432 28288
2775 31872 31168 30208 26432 28288
2776 31552 31360 30208 26432 28288
2777 31360 30656 30208 26432 28288
2778 31488 31040 30208 26432 28288
2779 30528 31040 30208 26432 28288
2780 31552 31808 29984 26784 28384
2781 32896 33152 29984 26784 28384
2782 32960 33728 29984 26784 28384
2783 33152 33920 29984 26784 28384
2784 33408 33984 29984 26784 28384
2785 33344 33856 29984 26784 28384
2786 33728 34048 29984 26784 28384
2787 34880 33856 29984 26784 28384
2788 34688 33344 29984 26784 28384
2789 33856 33728 29984 26784 28384
2790 33280 32704 30064 26688 28368
2791 32448 32000 30064 26688 28368
2792 32704 32576 30064 26688 28368
2793 32192 33024 30064 26688 28368
2794 32064 32640 30064 26688 28368
2795 31040 32256 30064 26688 28368
2796 30464 32448 30064 26688 28368
2797 31808 34368 30064 26688 28368
2798 29504 33344 30064 26688 28368
2799 29312 32640 30064 26688 28368
2800 28416 32512 30368 26752 28432
2801 28096 32576 30368 26752 28432
2802 28928 33024 30368 26752 28432
2803 30080 33024 30368 26752 28432
2804 26816 31232 30368 26752 28432
2805 28288 31680 30368 26752 28432
2806 29952 33344 30368 26752 28432
2807 28160 31616 30368 26752 28432
2808 28992 31808 30368 26752 28432
2809 30528 33216 30368 26752 28432
2810 29184 32384 30368 26624 28256
2811 29760 32768 30368 26624 28256
2812 29888 32704 30368 26624 28256
2813 29248 31104 30368 26624 28256
2814 30528 32128 30368 26624 28256
2815 30208 31488 30368 26624 28256
2816 30400 31616 30368 26624 28256
2817 29888 33344 30368 26624 28256
2818 30336 31104 30368 26624 28256
2819 30400 32896 30368 26624 28256
2820 29312 30208 30368 26624 28256
2821 29056 31680 30368 26624 28256
2822 29504 32832 30368 26624 28256
2823 31360 32832 30368 26624 28256
2824 30464 32576 30368 26624 28256
2825 29760 30848 30368 26624 28256
2826 29632 33088 30368 26624 28256
2827 28544 32320 30368 26624 28256
2828 28032 32320 30368 26624 28256
2829 28288 31936 30368 26624 28256
2830 29312 32320 30192 26496 27984
2831 29376 31872 30192 26496 27984
2832 29824 32448 30192 26496 27984
2833 31296 31936 30192 26496 27984
2834 39424 31872 30192 26496 27984
2835 49344 31360 30192 26496 27984
2836 49344 31104 30192 26496 27984
2837 30656 31360 30192 26496 27984
2838 22144 31232 30192 26496 27984
2839 20288 32064 30192 26496 27984
2840 28160 32576 30480 26640 28160
2841 32960 32192 30480 26640 28160
2842 31936 32448 30480 26640 28160
2843 29056 32192 30480 26640 28160
2844 31296 32768 30480 26640 28160
2845 30976 32640 30480 26640 28160
2846 30144 32064 30480 26640 28160
2847 29504 32448 30480 26640 28160
2848 29696 31424 30480 26640 28160
2849 28992 30656 30480 26640 28160
2850 31360 32640 30272 26912 28032
2851 30080 32320 30272 26912 28032
2852 31808 33152 30272 26912 28032
2853 32832 33344 30272 26912 28032
2854 31616 32896 30272 26912 28032
2855 33088 32640 30272 26912 28032
2856 32768 32192 30272 26912 28032
2857 32576 31936 30272 26912 28032
2858 34944 32896 30272 26912 28032
2859 34240 32000 30272 26912 28032
2860 34048 31872 30272 26912 28032
2861 34304 32064 30272 26912 28032
2862 32896 30784 30272 26912 28032
2863 33408 31360 30272 26912 28032
2864 34368 32704 30272 26912 28032
2865 32896 31872 30272 26912 28032
2866 32320 31744 30272 26912 28032
2867 31808 31744 30272 26912 28032
2868 30720 31360 30272 26912 28032
2869 30656 31296 30272 26912 28032
2870 28800 30464 30192 26800 28032
2871 28032 30464 30192 26800 28032
2872 29184 32256 30192 26800 28032
2873 27648 31424 30192 26800 28032
2874 27136 30464 30192 26800 28032
2875 28224 31296 30192 26800 28032
2876 27776 31168 30192 26800 28032
2877 28928 31808 30192 26800 28032
2878 28096 31360 30192 26800 28032
2879 28352 30912 30192 26800 28032
2880 28608 31104 30288 26752 28080
2881 28736 31360 30288 26752 28080
2882 29376 31360 30288 26752 28080
2883 28672 31168 30288 26752 28080
2884 28864 30336 30288 26752 28080
2885 26112 29120 30288 26752 28080
2886 27584 30656 30288 26752 28080
2887 30336 31744 30288 26752 28080
2888 29952 31104 30288 26752 28080
2889 29376 31808 30288 26752 28080
2890 29312 31680 29888 26784 28032
2891 29696 31488 29888 26784 28032
2892 28480 31040 29888 26784 28032
2893 28928 31104 29888 26784 28032
2894 27136 30272 29888 26784 28032
2895 27904 29888 29888 26784 28032
2896 27072 29696 29888 26784 28032
2897 27136 30208 29888 26784 28032
2898 29504 32896 29888 26784 28032
2899 27200 31616 29888 26784 28032
2900 25984 30976 29840 26688 28096
2901 28288 33024 29840 26688 28096
2902 28352 33024 29840 26688 28096
2903 27264 32768 29840 26688 28096
2904 29760 32448 29840 26688 28096
2905 37376 32960 29840 26688 28096
2906 47360 33472 29840 26688 28096
2907 48064 33984 29840 26688 28096
2908 29760 32960 29840 26688 28096
2909 20480 30912 29840 26688 28096
2910 19712 32640 29824 26784 28112
2911 27840 33856 29824 26784 28112
2912 29568 31680 29824 26784 28112
2913 28672 31552 29824 26784 28112
2914 27968 32064 29824 26784 28112
2915 29120 33344 29824 26784 28112
2916 29632 32704 29824 26784 28112
2917 29440 33152 29824 26784 28112
2918 29760 32704 29824 26784 28112
2919 28736 32192 29824 26784 28112
2920 28672 32128 29824 26784 28112
2921 28736 31680 29824 26784 28112
2922 28992 31552 29824 26784 28112
2923 28928 32384 29824 26784 28112
2924 30080 32896 29824 26784 28112
2925 31168 33280 29824 26784 28112
2926 29504 33024 29824 26784 28112
2927 30528 33664 29824 26784 28112
2928 30464 34432 29824 26784 28112
2929 33664 37248 29824 26784 28112
2930 33792 37632 29632 27008 28192
2931 33600 37312 29632 27008 28192
2932 33472 37440 29632 27008 28192
2933 33280 37376 29632 27008 28192
2934 32384 37248 29632 27008 28192
2935 30592 37184 29632 27008 28192
2936 30528 37120 29632 27008 28192
2937 31104 38144 29632 27008 28192
2938 30272 37824 29632 27008 28192
2939 29952 38080 29632 27008 28192
2940 28480 38016 29552 26944 28272
2941 27712 37248 29552 26944 28272
2942 26752 37184 29552 26944 28272
2943 27776 39232 29552 26944 28272
2944 26944 38720 29552 26944 28272
2945 25920 37568 29552 26944 28272
2946 26304 37888 29552 26944 28272
2947 27328 38656 29552 26944 28272
2948 28096 38272 29552 26944 28272
2949 28224 38784 29552 26944 28272
2950 27328 38208 29664 26960 28320
2951 27520 38400 29664 26960 28320
2952 27264 37888 29664 26960 28320
2953 27584 37632 29664 26960 28320
2954 27712 37696 29664 26960 28320
2955 27264 37056 29664 26960 28320
2956 26368 35840 29664 26960 28320
2957 26368 35328 29664 26960 28320
2958 28160 37184 29664 26960 28320
2959 29632 37760 29664 26960 28320
2960 28992 37760 29664 26960 28320
2961 29440 36992 29664 26960 28320
2962 28736 37696 29664 26960 28320
2963 29056 37760 29664 26960 28320
2964 27840 36800 29664 26960 28320
2965 28608 36928 29664 26960 28320
2966 28160 36672 29664 26960 28320
2967 27968 36800 29664 26960 28320
2968 26816 35840 29664 26960 28320
2969 27264 35776 29664 26960 28320
2970 26560 35264 29632 27008 28128
2971 26304 35584 29632 27008 28128
2972 27008 35520 29632 27008 28128
2973 27136 34880 29632 27008 28128
2974 29504 34752 29632 27008 28128
2975 38400 36864 29632 27008 28128
2976 47232 36480 29632 27008 28128
2977 46848 36352 29632 27008 28128
2978 30656 35776 29632 27008 28128
2979 24448 35584 29632 27008 28128
2980 20864 35648 29408 26880 28096
2981 26496 35776 29408 26880 28096
2982 30080 35776 29408 26880 28096
2983 29440 35968 29408 26880 28096
2984 29056 36416 29408 26880 28096
2985 28608 36224 29408 26880 28096
2986 29120 36352 29408 26880 28096
2987 28288 35712 29408 26880 28096
2988 29056 35840 29408 26880 28096
2989 29376 35456 29408 26880 28096
2990 30464 36608 29424 26832 28128
2991 29632 36288 29424 26832 28128
2992 29696 35968 29424 26832 28128
2993 30592 35264 29424 26832 28128
2994 30592 35712 29424 26832 28128
2995 31168 36096 29424 26832 28128
2996 32832 37056 29424 26832 28128
2997 31872 35776 29424 26832 28128
2998 32896 35776 29424 26832 28128
2999 32896 35520 29424 26832 28128
3000 33600 35712 29600 26848 28352
3001 34112 35648 29600 26848 28352
3002 34752 35712 29600 26848 28352
3003 34304 35264 29600 26848 28352
3004 33600 34944 29600 26848 28352
3005 33280 34880 29600 26848 28352
3006 32576 35072 29600 26848 28352
3007 31744 35456 29600 26848 28352
3008 30848 35648 29600 26848 28352
3009 30016 35840 29600 26848 28352
3010 29952 35712 29568 26864 28384
3011 29888 35776 29568 26864 28384
3012 29440 35136 29568 26864 28384
3013 29568 35008 29568 26864 28384
3014 29184 34816 29568 26864 28384
3015 28096 34432 29568 26864 28384
3016 29376 34368 29568 26864 28384
3017 27968 34496 29568 26864 28384
3018 29120 34880 29568 26864 28384
3019 27968 34816 29568 26864 28384
3020 29504 35456 29568 26864 28384
3021 29696 35136 29568 26864 28384
3022 28800 34816 29568 26864 28384
3023 29568 34688 29568 26864 28384
3024 29440 34688 29568 26864 28384
3025 29888 34240 29568 26864 28384
3026 30080 34304 29568 26864 28384
3027 30464 33600 29568 26864 28384
3028 30400 33856 29568 26864 28384
3029 29696 33472 29568 26864 28384
3030 32064 33472 29520 26944 28320
3031 31360 33792 29520 26944 28320
3032 31296 33984 29520 26944 28320
3033 30912 33792 29520 26944 28320
3034 30144 33472 29520 26944 28320
3035 30720 33600 29520 26944 28320
3036 31040 33728 29520 26944 28320
3037 30016 33600 29520 26944 28320
3038 29952 33728 29520 26944 28320
3039 29376 33088 29520 26944 28320
3040 30528 33216 29600 27008 28416
3041 30016 33024 29600 27008 28416
3042 29888 32896 29600 27008 28416
3043 29888 33088 29600 27008 28416
3044 34816 32640 29600 27008 28416
3045 42944 33088 29600 27008 28416
3046 48256 33024 29600 27008 28416
3047 40384 33088 29600 27008 28416
3048 29888 32960 29600 27008 28416
3049 22656 33088 29600 27008 28416
3050 25344 33280 29584 26976 28384
3051 29952 33408 29584 26976 28384
3052 32384 33216 29584 26976 28384
3053 30272 33024 29584 26976 28384
3054 30848 32576 29584 26976 28384
3055 31168 32448 29584 26976 28384
3056 31616 32256 29584 26976 28384
3057 31488 32384 29584 26976 28384
3058 31808 32704 29584 26976 28384
3059 32896 32960 29584 26976 28384
3060 32512 33280 29424 26992 28384
3061 32384 33408 29424 26992 28384
3062 32448 33856 29424 26992 28384
3063 33216 34048 29424 26992 28384
3064 33408 33792 29424 26992 28384
3065 34240 33280 29424 26992 28384
3066 34176 32960 29424 26992 28384
3067 35456 32896 29424 26992 28384
3068 35264 33024 29424 26992 28384
3069 35648 32768 29424 26992 28384
3070 35968 33088 29312 26688 28192
3071 35904 33344 29312 26688 28192
3072 35520 33728 29312 26688 28192
3073 35264 33152 29312 26688 28192
3074 35584 33664 29312 26688 28192
3075 35072 33984 29312 26688 28192
3076 33792 33280 29312 26688 28192
3077 32960 33152 29312 26688 28192
3078 32320 32640 29312 26688 28192
3079 32000 32960 29312 26688 28192
3080 31424 32768 29312 26688 28192
3081 31296 32704 29312 26688 28192
3082 29632 33024 29312 26688 28192
3083 30592 33344 29312 26688 28192
3084 30784 33280 29312 26688 28192
3085 30592 33664 29312 26688 28192
3086 30720 33856 29312 26688 28192
3087 29312 33664 29312 26688 28192
3088 30400 33408 29312 26688 28192
3089 30336 33152 29312 26688 28192
3090 30720 32704 29328 26736 28240
3091 30528 31680 29328 26736 28240
3092 30272 32512 29328 26736 28240
3093 30976 32768 29328 26736 28240
3094 31296 32896 29328 26736 28240
3095 31680 32896 29328 26736 28240
3096 31232 33088 29328 26736 28240
3097 32000 32832 29328 26736 28240
3098 32448 32960 29328 26736 28240
3099 32192 32576 29328 26736 28240
3100 32576 32640 29312 26752 28336
3101 32704 32704 29312 26752 28336
3102 30464 32512 29312 26752 28336
3103 31296 32576 29312 26752 28336
3104 31488 33024 29312 26752 28336
3105 31232 32960 29312 26752 28336
3106 31104 33344 29312 26752 28336
3107 30464 33472 29312 26752 28336
3108 30080 33536 29312 26752 28336
3109 30144 33920 29312 26752 28336
3110 30848 33024 29408 26880 28448
3111 30912 33152 29408 26880 28448
3112 31104 32960 29408 26880 28448
3113 32512 32320 29408 26880 28448
3114 39680 32448 29408 26880 28448
3115 45248 33024 29408 26880 28448
3116 45824 32512 29408 26880 28448
3117 32064 32384 29408 26880 28448
3118 27008 32704 29408 26880 28448
3119 23616 33152 29408 26880 28448
3120 29248 33280 29408 26880 28448
3121 32000 33408 29408 26880 28448
3122 32192 32768 29408 26880 28448
3123 32320 32832 29408 26880 28448
3124 31040 32448 29408 26880 28448
3125 31936 32704 29408 26880 28448
3126 32256 32960 29408 26880 28448
3127 32448 32896 29408 26880 28448
3128 32192 32960 29408 26880 28448
3129 32512 33088 29408 26880 28448
3130 33472 33344 29552 26864 28400
3131 32704 33088 29552 26864 28400
3132 33344 33152 29552 26864 28400
3133 34304 32896 29552 26864 28400
3134 34624 33024 29552 26864 28400
3135 35136 32576 29552 26864 28400
3136 35072 32192 29552 26864 28400
3137 36352 32192 29552 26864 28400
3138 35776 32256 29552 26864 28400
3139 35840 32896 29552 26864 28400
3140 36224 32896 29664 26864 28416
3141 35968 33280 29664 26864 28416
3142 36608 33472 29664 26864 28416
3143 35712 33728 29664 26864 28416
3144 35136 33472 29664 26864 28416
3145 35520 32960 29664 26864 28416
3146 34112 32256 29664 26864 28416
3147 33024 32064 29664 26864 28416
3148 33344 31872 29664 26864 28416
3149 32512 32192 29664 26864 28416
3150 32320 32064 29568 26848 28320
3151 30976 32128 29568 26848 28320
3152 31808 32128 29568 26848 28320
3153 31424 32768 29568 26848 28320
3154 30400 32512 29568 26848 28320
3155 31168 33152 29568 26848 28320
3156 31872 33728 29568 26848 28320
3157 31872 33344 29568 26848 28320
3158 31424 33024 29568 26848 28320
3159 31424 32576 29568 26848 28320
3160 31168 32576 29600 26928 28480
3161 31616 32448 29600 26928 28480
3162 31360 32512 29600 26928 28480
3163 32128 31936 29600 26928 28480
3164 31424 32448 29600 26928 28480
3165 31872 32640 29600 26928 28480
3166 32640 33728 29600 26928 28480
3167 32256 33472 29600 26928 28480
3168 32192 34176 29600 26928 28480
3169 32832 33728 29600 26928 28480
3170 32192 33856 29632 26848 28224
3171 32832 33280 29632 26848 28224
3172 33408 33088 29632 26848 28224
3173 33152 33280 29632 26848 28224
3174 32064 32896 29632 26848 28224
3175 31424 32640 29632 26848 28224
3176 32192 32384 29632 26848 28224
3177 32576 32832 29632 26848 28224
3178 32704 32704 29632 26848 28224
3179 31680 32960 29632 26848 28224
3180 30976 33024 29632 26848 28224
3181 31424 32640 29632 26848 28224
3182 31104 32832 29632 26848 28224
3183 30848 32704 29632 26848 28224
3184 32000 33088 29632 26848 28224
3185 33408 33088 29632 26848 28224
3186 38528 33024 29632 26848 28224
3187 45888 32768 29632 26848 28224
3188 47552 32832 29632 26848 28224
3189 34880 32768 29632 26848 28224
3190 27584 32768 29280 27328 28224
3191 22656 33280 29280 27328 28224
3192 28800 33792 29280 27328 28224
3193 33472 33792 29280 27328 28224
3194 32576 33408 29280 27328 28224
3195 31360 32640 29280 27328 28224
3196 31936 32576 29280 27328 28224
3197 33280 33472 29280 27328 28224
3198 31680 33152 29280 27328 28224
3199 33280 33152 29280 27328 28224
3200 31872 32064 29504 27344 28240
3201 31936 32128 29504 27344 28240
3202 34176 33856 29504 27344 28240
3203 34304 34048 29504 27344 28240
3204 35392 33472 29504 27344 28240
3205 35392 32832 29504 27344 28240
3206 34816 32384 29504 27344 28240
3207 34944 32704 29504 27344 28240
3208 34432 32320 29504 27344 28240
3209 35392 32448 29504 27344 28240
3210 34880 30464 29616 27120 27936
3211 35264 31232 29616 27120 27936
3212 36992 32704 29616 27120 27936
3213 37952 33664 29616 27120 27936
3214 36800 33280 29616 27120 27936
3215 37248 32640 29616 27120 27936
3216 35008 32128 29616 27120 27936
3217 35584 32128 29616 27120 27936
3218 34880 31680 29616 27120 27936
3219 32576 30720 29616 27120 27936
3220 30976 30208 29616 27120 27936
3221 29376 29376 29616 27120 27936
3222 32832 33280 29616 27120 27936
3223 32512 34112 29616 27120 27936
3224 33152 34048 29616 27120 27936
3225 32000 32768 29616 27120 27936
3226 30656 32448 29616 27120 27936
3227 30656 32320 29616 27120 27936
3228 30208 31296 29616 27120 27936
3229 29952 31104 29616 27120 27936
3230 29184 30464 29984 27040 28000
3231 30016 31232 29984 27040 28000
3232 30464 31552 29984 27040 28000
3233 31104 32576 29984 27040 28000
3234 31616 32896 29984 27040 28000
3235 31168 32000 29984 27040 28000
3236 31424 32448 29984 27040 28000
3237 32128 31680 29984 27040 28000
3238 30208 30464 29984 27040 28000
3239 28736 29056 29984 27040 28000
3240 28352 28800 29968 26864 27984
3241 31360 31872 29968 26864 27984
3242 31488 31808 29968 26864 27984
3243 32256 33024 29968 26864 27984
3244 31168 32832 29968 26864 27984
3245 29824 32576 29968 26864 27984
3246 31808 32000 29968 26864 27984
3247 31296 31040 29968 26864 27984
3248 30912 30656 29968 26864 27984
3249 30464 30080 29968 26864 27984
3250 28928 27968 29920 26912 27888
3251 27008 27328 29920 26912 27888
3252 30528 31232 29920 26912 27888
3253 30912 31360 29920 26912 27888
3254 32512 33152 29920 26912 27888
3255 30848 32512 29920 26912 27888
3256 29312 32448 29920 26912 27888
3257 31360 32896 29920 26912 27888
3258 29824 32640 29920 26912 27888
3259 29760 32000 29920 26912 27888
3260 27968 30144 30144 26912 27904
3261 27520 29632 30144 26912 27904
3262 28736 28672 30144 26912 27904
3263 36096 29696 30144 26912 27904
3264 49792 35840 30144 26912 27904
3265 47488 34880 30144 26912 27904
3266 31488 34880 30144 26912 27904
3267 24384 33984 30144 26912 27904
3268 20032 33344 30144 26912 27904
3269 30400 35840 30144 26912 27904
3270 32832 35776 30144 26976 27792
3271 29120 32192 30144 26976 27792
3272 31104 34496 30144 26976 27792
3273 32000 35328 30144 26976 27792
3274 28352 31488 30144 26976 27792
3275 24320 28032 30144 26976 27792
3276 33408 36864 30144 26976 27792
3277 33856 37184 30144 26976 27792
3278 32768 35904 30144 26976 27792
3279 32576 34496 30144 26976 27792
3280 33536 34688 30144 26976 27792
3281 31296 32896 30144 26976 27792
3282 29888 30528 30144 26976 27792
3283 31360 31936 30144 26976 27792
3284 35200 34880 30144 26976 27792
3285 33024 32960 30144 26976 27792
3286 35136 33792 30144 26976 27792
3287 35776 33920 30144 26976 27792
3288 36160 33024 30144 26976 27792
3289 34560 31552 30144 26976 27792
3290 35520 33280 30128 27024 27632
3291 35520 33024 30128 27024 27632
3292 33408 32128 30128 27024 27632
3293 33856 32000 30128 27024 27632
3294 34112 32640 30128 27024 27632
3295 33088 31616 30128 27024 27632
3296 32640 32000 30128 27024 27632
3297 34880 34304 30128 27024 27632
3298 32640 33600 30128 27024 27632
3299 33088 33088 30128 27024 27632
3300 31104 33152 30240 27232 27776
3301 30656 31744 30240 27232 27776
3302 29568 31104 30240 27232 27776
3303 30144 31360 30240 27232 27776
3304 27584 30592 30240 27232 27776
3305 28288 30976 30240 27232 27776
3306 30144 32256 30240 27232 27776
3307 33792 35840 30240 27232 27776
3308 31168 33216 30240 27232 27776
3309 29824 31552 30240 27232 27776
3310 31424 32576 30432 27328 27808
3311 30528 31680 30432 27328 27808
3312 29952 31808 30432 27328 27808
3313 31232 32832 30432 27328 27808
3314 30720 31808 30432 27328 27808
3315 30080 32320 30432 27328 27808
3316 32000 33472 30432 27328 27808
3317 29568 31936 30432 27328 27808
3318 30272 32704 30432 27328 27808
3319 29376 31104 30432 27328 27808
3320 28736 31168 30192 27264 27568
3321 33024 35392 30192 27264 27568
3322 31808 33792 30192 27264 27568
3323 31616 33984 30192 27264 27568
3324 30336 33856 30192 27264 27568
3325 30400 33024 30192 27264 27568
3326 30272 31808 30192 27264 27568
3327 30464 32256 30192 27264 27568
3328 31040 33408 30192 27264 27568
3329 30912 33088 30192 27264 27568
3330 29952 31552 30400 27072 27488
3331 29888 31936 30400 27072 27488
3332 31104 33920 30400 27072 27488
3333 29696 32896 30400 27072 27488
3334 29312 33024 30400 27072 27488
3335 27648 31872 30400 27072 27488
3336 28224 30592 30400 27072 27488
3337 30016 32128 30400 27072 27488
3338 30720 32320 30400 27072 27488
3339 34048 31872 30400 27072 27488
3340 41408 31936 30400 27072 27488
3341 47040 30336 30400 27072 27488
3342 44992 32448 30400 27072 27488
3343 29376 31680 30400 27072 27488
3344 21760 30656 30400 27072 27488
3345 27584 37056 30400 27072 27488
3346 32320 34816 30400 27072 27488
3347 32384 32448 30400 27072 27488
3348 30784 30720 30400 27072 27488
3349 31168 32256 30400 27072 27488
3350 31552 32192 30608 27008 27632
3351 31872 33536 30608 27008 27632
3352 32448 33536 30608 27008 27632
3353 31296 32128 30608 27008 27632
3354 32576 32320 30608 27008 27632
3355 32768 33856 30608 27008 27632
3356 30464 30080 30608 27008 27632
3357 32320 32064 30608 27008 27632
3358 32768 32064 30608 27008 27632
3359 33216 31552 30608 27008 27632
3360 32512 32640 30912 27136 27792
3361 33728 31232 30912 27136 27792
3362 35008 32384 30912 27136 27792
3363 33984 30656 30912 27136 27792
