0 23744 25216 31216 29040 32080
1 22592 24256 31216 29040 32080
2 23040 24192 31216 29040 32080
3 21568 23424 31216 29040 32080
4 23040 24640 31216 29040 32080
5 24768 26048 31216 29040 32080
6 23296 24640 31216 29040 32080
7 24192 25280 31216 29040 32080
8 24640 26368 31216 29040 32080
9 24704 25856 31216 29040 32080
10 23616 24896 30480 27168 31920
11 22656 24512 30480 27168 31920
12 23104 24256 30480 27168 31920
13 24960 25984 30480 27168 31920
14 25152 27072 30480 27168 31920
15 25664 26112 30480 27168 31920
16 25216 26560 30480 27168 31920
17 25920 27072 30480 27168 31920
18 25984 27328 30480 27168 31920
19 25280 26560 30480 27168 31920
20 25664 25792 30480 27168 31920
21 24256 25984 30480 27168 31920
22 26368 27840 30480 27168 31920
23 26624 28416 30480 27168 31920
24 26496 27520 30480 27168 31920
25 25984 27520 30480 27168 31920
26 26176 28224 30480 27168 31920
27 24768 27264 30480 27168 31920
28 23552 26944 30480 27168 31920
29 25216 27840 30480 27168 31920
30 27456 29504 29664 25088 31488
31 25152 29056 29664 25088 31488
32 26688 28416 29664 25088 31488
33 30080 28032 29664 25088 31488
34 39360 27456 29664 25088 31488
35 48000 26880 29664 25088 31488
36 47360 29632 29664 25088 31488
37 28992 29888 29664 25088 31488
38 20800 29504 29664 25088 31488
39 21056 29696 29664 25088 31488
40 26304 29056 29744 25104 31536
41 29440 27968 29744 25104 31536
42 28224 29056 29744 25104 31536
43 28928 30464 29744 25104 31536
44 29248 30336 29744 25104 31536
45 27392 28608 29744 25104 31536
46 26304 28224 29744 25104 31536
47 29440 30400 29744 25104 31536
48 27776 29120 29744 25104 31536
49 28928 29504 29744 25104 31536
50 29632 29760 29728 25200 31472
51 29888 29824 29728 25200 31472
52 30400 30528 29728 25200 31472
53 29440 28480 29728 25200 31472
54 31296 29888 29728 25200 31472
55 31488 29696 29728 25200 31472
56 31872 29888 29728 25200 31472
57 33792 31168 29728 25200 31472
58 34496 31296 29728 25200 31472
59 34496 30656 29728 25200 31472
60 34496 30016 29728 25200 31472
61 35712 30912 29728 25200 31472
62 37120 31680 29728 25200 31472
63 35136 30464 29728 25200 31472
64 34560 29760 29728 25200 31472
65 32960 29120 29728 25200 31472
66 33536 30016 29728 25200 31472
67 34304 32192 29728 25200 31472
68 33920 32896 29728 25200 31472
69 30912 31552 29728 25200 31472
70 30848 31872 29728 25216 31584
71 29824 31616 29728 25216 31584
72 29184 31168 29728 25216 31584
73 28544 30848 29728 25216 31584
74 27648 30528 29728 25216 31584
75 26240 29504 29728 25216 31584
76 26112 29248 29728 25216 31584
77 28544 32064 29728 25216 31584
78 29696 33536 29728 25216 31584
79 28416 32768 29728 25216 31584
80 28800 32960 29728 25152 31488
81 29568 32832 29728 25152 31488
82 27776 32000 29728 25152 31488
83 28480 31680 29728 25152 31488
84 27136 30464 29728 25152 31488
85 29568 31552 29728 25152 31488
86 30528 32832 29728 25152 31488
87 31424 33344 29728 25152 31488
88 30272 32448 29728 25152 31488
89 28864 31488 29728 25152 31488
90 31552 33280 29776 25200 31488
91 29568 32384 29776 25200 31488
92 29504 30976 29776 25200 31488
93 29056 31360 29776 25200 31488
94 30144 32000 29776 25200 31488
95 29824 32192 29776 25200 31488
96 30144 32384 29776 25200 31488
97 30144 32448 29776 25200 31488
98 31104 32512 29776 25200 31488
99 30336 32192 29776 25200 31488
100 31680 33280 29824 25344 31392
101 30656 32832 29824 25344 31392
102 30016 32320 29824 25344 31392
103 29632 31296 29824 25344 31392
104 30976 33152 29824 25344 31392
105 30080 32640 29824 25344 31392
106 30016 32448 29824 25344 31392
107 29632 32896 29824 25344 31392
108 29184 32384 29824 25344 31392
109 28544 31616 29824 25344 31392
110 29568 32704 29792 25296 31408
111 29120 31808 29792 25296 31408
112 28608 31488 29792 25296 31408
113 33088 33152 29792 25296 31408
114 39424 32128 29792 25296 31408
115 50752 31936 29792 25296 31408
116 55360 34496 29792 25296 31408
117 36352 33024 29792 25296 31408
118 25600 32448 29792 25296 31408
119 21120 32960 29792 25296 31408
120 29312 33024 29792 25296 31408
121 33088 32192 29792 25296 31408
122 33216 32512 29792 25296 31408
123 30528 31680 29792 25296 31408
124 30720 32000 29792 25296 31408
125 29056 31424 29792 25296 31408
126 31168 32832 29792 25296 31408
127 32320 33536 29792 25296 31408
128 31168 32128 29792 25296 31408
129 30400 31424 29792 25296 31408
130 33088 33152 29760 25216 31472
131 32640 33024 29760 25216 31472
132 33920 32832 29760 25216 31472
133 32448 31488 29760 25216 31472
134 33216 31808 29760 25216 31472
135 33408 31104 29760 25216 31472
136 34432 32000 29760 25216 31472
137 35648 32128 29760 25216 31472
138 34432 30912 29760 25216 31472
139 34752 30208 29760 25216 31472
140 35712 31104 29728 25088 31488
141 38336 32832 29728 25088 31488
142 37760 32128 29728 25088 31488
143 37120 31168 29728 25088 31488
144 35648 30912 29728 25088 31488
145 37184 32448 29728 25088 31488
146 37376 32960 29728 25088 31488
147 35264 31552 29728 25088 31488
148 32704 29888 29728 25088 31488
149 32576 31168 29728 25088 31488
150 30912 32000 29776 25088 31424
151 32832 32640 29776 25088 31424
152 29952 32000 29776 25088 31424
153 29632 32128 29776 25088 31424
154 28544 31424 29776 25088 31424
155 28480 31168 29776 25088 31424
156 28672 31296 29776 25088 31424
157 29504 32128 29776 25088 31424
158 28416 31232 29776 25088 31424
159 29504 33024 29776 25088 31424
160 30464 33088 29760 25088 31408
161 31104 33792 29760 25088 31408
162 29568 32128 29760 25088 31408
163 29312 31808 29760 25088 31408
164 28800 31296 29760 25088 31408
165 29888 31872 29760 25088 31408
166 30720 32640 29760 25088 31408
167 30464 32128 29760 25088 31408
168 29888 31680 29760 25088 31408
169 30208 32256 29760 25088 31408
170 30656 31744 29760 25088 31408
171 28096 29824 29760 25088 31408
172 32064 33792 29760 25088 31408
173 30720 32320 29760 25088 31408
174 30080 32320 29760 25088 31408
175 30656 32256 29760 25088 31408
176 30016 32768 29760 25088 31408
177 30336 31680 29760 25088 31408
178 30912 31808 29760 25088 31408
179 30784 31936 29760 25088 31408
180 29824 31168 29888 25088 31264
181 30272 30784 29888 25088 31264
182 29440 31232 29888 25088 31264
183 29632 30976 29888 25088 31264
184 30720 32000 29888 25088 31264
185 32832 33984 29888 25088 31264
186 31104 33024 29888 25088 31264
187 30016 32704 29888 25088 31264
188 28928 31296 29888 25088 31264
189 28864 31744 29888 25088 31264
190 30464 33216 29888 25136 31328
191 29952 32448 29888 25136 31328
192 29440 31936 29888 25136 31328
193 31552 32576 29888 25136 31328
194 36928 32320 29888 25136 31328
195 47040 30848 29888 25136 31328
196 55232 31872 29888 25136 31328
197 43264 31616 29888 25136 31328
198 27840 32064 29888 25136 31328
199 22016 33664 29888 25136 31328
200 27584 33408 29824 25184 31360
201 33984 33024 29824 25184 31360
202 35200 32704 29824 25184 31360
203 32128 32768 29824 25184 31360
204 31104 32192 29824 25184 31360
205 30464 31424 29824 25184 31360
206 30912 31040 29824 25184 31360
207 29376 29504 29824 25184 31360
208 33216 33664 29824 25184 31360
209 33280 33280 29824 25184 31360
210 34944 34688 29984 25216 31328
211 33408 33152 29984 25216 31328
212 32320 32512 29984 25216 31328
213 33088 32896 29984 25216 31328
214 34368 33152 29984 25216 31328
215 34624 32640 29984 25216 31328
216 35584 33216 29984 25216 31328
217 35136 33024 29984 25216 31328
218 34432 31616 29984 25216 31328
219 37312 33344 29984 25216 31328
220 38144 33728 29984 25216 31328
221 37696 32896 29984 25216 31328
222 37760 32576 29984 25216 31328
223 37376 32192 29984 25216 31328
224 37376 32192 29984 25216 31328
225 39680 34624 29984 25216 31328
226 36736 33216 29984 25216 31328
227 36608 32960 29984 25216 31328
228 34880 32448 29984 25216 31328
229 32896 31552 29984 25216 31328
230 33472 32896 30016 25120 31312
231 32000 33344 30016 25120 31312
232 31360 32576 30016 25120 31312
233 29568 31680 30016 25120 31312
234 30848 33152 30016 25120 31312
235 29760 32768 30016 25120 31312
236 28864 32064 30016 25120 31312
237 29632 32320 30016 25120 31312
238 30016 33280 30016 25120 31312
239 30080 33216 30016 25120 31312
240 30336 33088 29968 25152 31344
241 30400 33280 29968 25152 31344
242 29568 32256 29968 25152 31344
243 29120 31424 29968 25152 31344
244 30656 32576 29968 25152 31344
245 30080 32384 29968 25152 31344
246 28800 31168 29968 25152 31344
247 30784 32384 29968 25152 31344
248 30976 33472 29968 25152 31344
249 30912 32832 29968 25152 31344
250 31232 32960 29920 25152 31232
251 30848 33088 29920 25152 31232
252 31360 32512 29920 25152 31232
253 30144 31360 29920 25152 31232
254 29888 31808 29920 25152 31232
255 31168 32960 29920 25152 31232
256 30336 31616 29920 25152 31232
257 30400 31360 29920 25152 31232
258 30720 32256 29920 25152 31232
259 32640 33600 29920 25152 31232
260 32128 32832 29920 25104 31296
261 29568 31552 29920 25104 31296
262 29760 30720 29920 25104 31296
263 29824 32128 29920 25104 31296
264 32064 31936 29920 25104 31296
265 31744 33152 29920 25104 31296
266 32448 33600 29920 25104 31296
267 30208 32448 29920 25104 31296
268 31104 33216 29920 25104 31296
269 30592 32640 29920 25104 31296
270 30208 32064 29968 25104 31264
271 28864 30976 29968 25104 31264
272 28224 30272 29968 25104 31264
273 34368 32384 29968 25104 31264
274 44672 33600 29968 25104 31264
275 54720 32768 29968 25104 31264
276 51712 32640 29968 25104 31264
277 34240 33216 29968 25104 31264
278 25856 33984 29968 25104 31264
279 24128 34560 29968 25104 31264
280 30144 34752 29968 25104 31264
281 33984 34432 29968 25104 31264
282 30848 33152 29968 25104 31264
283 32064 33536 29968 25104 31264
284 33024 34688 29968 25104 31264
285 32256 34560 29968 25104 31264
286 30912 32448 29968 25104 31264
287 31616 32960 29968 25104 31264
288 31296 32192 29968 25104 31264
289 32512 33600 29968 25104 31264
290 33600 34368 30016 25056 31360
291 33856 34432 30016 25056 31360
292 33792 33600 30016 25056 31360
293 32768 32448 30016 25056 31360
294 33536 32576 30016 25056 31360
295 35200 34240 30016 25056 31360
296 35648 33728 30016 25056 31360
297 36352 33792 30016 25056 31360
298 36288 32960 30016 25056 31360
299 36992 33088 30016 25056 31360
300 38976 34304 30016 25072 31328
301 37952 33536 30016 25072 31328
302 38336 32640 30016 25072 31328
303 36928 31872 30016 25072 31328
304 36544 32192 30016 25072 31328
305 37632 33152 30016 25072 31328
306 36864 34048 30016 25072 31328
307 35008 32448 30016 25072 31328
308 34112 33280 30016 25072 31328
309 34752 34048 30016 25072 31328
310 32896 33856 29984 25104 31328
311 31168 32768 29984 25104 31328
312 29824 32576 29984 25104 31328
313 29760 32832 29984 25104 31328
314 30528 34048 29984 25104 31328
315 29888 33152 29984 25104 31328
316 28736 32128 29984 25104 31328
317 29248 32768 29984 25104 31328
318 30272 34368 29984 25104 31328
319 29504 33408 29984 25104 31328
320 30080 33344 29984 25104 31328
321 30464 32896 29984 25104 31328
322 29760 33280 29984 25104 31328
323 28544 33280 29984 25104 31328
324 30016 35136 29984 25104 31328
325 30272 36416 29984 25104 31328
326 31552 36672 29984 25104 31328
327 30336 35584 29984 25104 31328
328 29056 33984 29984 25104 31328
329 28736 33984 29984 25104 31328
330 32064 36608 29952 25152 31328
331 32192 36544 29952 25152 31328
332 31168 34688 29952 25152 31328
333 29632 33984 29952 25152 31328
334 30912 34496 29952 25152 31328
335 31168 34560 29952 25152 31328
336 30848 34688 29952 25152 31328
337 31552 34560 29952 25152 31328
338 31168 34368 29952 25152 31328
339 29824 33280 29952 25152 31328
340 29824 33472 29984 25168 31312
341 30720 33536 29984 25168 31312
342 31104 34240 29984 25168 31312
343 30080 33472 29984 25168 31312
344 28160 31936 29984 25168 31312
345 29184 34112 29984 25168 31312
346 30592 34752 29984 25168 31312
347 29888 33984 29984 25168 31312
348 28864 33472 29984 25168 31312
349 27904 32192 29984 25168 31312
350 29440 33088 29952 25152 31376
351 36800 35328 29952 25152 31376
352 44224 33472 29952 25152 31376
353 51776 31744 29952 25152 31376
354 48512 31680 29952 25152 31376
355 32640 31360 29952 25152 31376
356 25536 31040 29952 25152 31376
357 23232 29952 29952 25152 31376
358 29696 29888 29952 25152 31376
359 32512 29760 29952 25152 31376
360 31424 29504 29952 25184 31424
361 31168 30656 29952 25184 31424
362 32128 31360 29952 25184 31424
363 31424 30912 29952 25184 31424
364 30848 29568 29952 25184 31424
365 31040 30464 29952 25184 31424
366 32512 31104 29952 25184 31424
367 31232 30464 29952 25184 31424
368 30528 29760 29952 25184 31424
369 32576 31296 29952 25184 31424
370 32384 30656 29904 25184 31328
371 32576 31104 29904 25184 31328
372 33408 30720 29904 25184 31328
373 32832 30272 29904 25184 31328
374 33856 30272 29904 25184 31328
375 35008 30976 29904 25184 31328
376 35904 31168 29904 25184 31328
377 36352 31296 29904 25184 31328
378 36992 31040 29904 25184 31328
379 35712 29504 29904 25184 31328
380 34880 29504 29904 25184 31328
381 36096 30400 29904 25184 31328
382 37568 32320 29904 25184 31328
383 36416 31424 29904 25184 31328
384 33664 30848 29904 25184 31328
385 35136 32000 29904 25184 31328
386 32768 32640 29904 25184 31328
387 31424 33024 29904 25184 31328
388 31232 35712 29904 25184 31328
389 29696 36928 29904 25184 31328
390 27264 37952 29936 25152 31312
391 27008 39104 29936 25152 31312
392 29760 43072 29936 25152 31312
393 28480 43072 29936 25152 31312
394 29120 44288 29936 25152 31312
395 27328 43328 29936 25152 31312
396 29184 43392 29936 25152 31312
397 27648 41536 29936 25152 31312
398 28928 41216 29936 25152 31312
399 29056 40512 29936 25152 31312
400 27072 37440 29984 25120 31328
401 27776 36224 29984 25120 31328
402 31168 37824 29984 25120 31328
403 30656 36288 29984 25120 31328
404 29312 34432 29984 25120 31328
405 28160 32384 29984 25120 31328
406 30592 33984 29984 25120 31328
407 30912 33792 29984 25120 31328
408 30080 32704 29984 25120 31328
409 29824 31296 29984 25120 31328
410 28800 30400 29952 25072 31312
411 28544 29632 29952 25072 31312
412 30272 30592 29952 25072 31312
413 31808 31872 29952 25072 31312
414 30656 31040 29952 25072 31312
415 31424 30400 29952 25072 31312
416 30336 29696 29952 25072 31312
417 30016 30080 29952 25072 31312
418 30912 30464 29952 25072 31312
419 29760 28864 29952 25072 31312
420 29440 28864 29952 25072 31312
421 30336 29760 29952 25072 31312
422 31232 30848 29952 25072 31312
423 29632 29888 29952 25072 31312
424 28864 29760 29952 25072 31312
425 28608 29248 29952 25072 31312
426 29632 29888 29952 25072 31312
427 30592 31296 29952 25072 31312
428 29504 29504 29952 25072 31312
429 30336 29056 29952 25072 31312
430 35136 28672 29936 25104 31328
431 47296 28672 29936 25104 31328
432 54464 29760 29936 25104 31328
433 42560 30656 29936 25104 31328
434 29120 30080 29936 25104 31328
435 20864 30080 29936 25104 31328
436 27648 31296 29936 25104 31328
437 32320 30400 29936 25104 31328
438 33600 30144 29936 25104 31328
439 31360 29440 29936 25104 31328
440 29312 28480 29984 25120 31296
441 31040 30080 29984 25120 31296
442 31680 30976 29984 25120 31296
443 32064 31104 29984 25120 31296
444 32512 31936 29984 25120 31296
445 31296 30208 29984 25120 31296
446 30976 29184 29984 25120 31296
447 33920 31808 29984 25120 31296
448 33920 31744 29984 25120 31296
449 34240 31488 29984 25120 31296
450 32704 30592 29968 25200 31328
451 33152 29504 29968 25200 31328
452 32896 29696 29968 25200 31328
453 35328 30464 29968 25200 31328
454 36800 31872 29968 25200 31328
455 36416 30912 29968 25200 31328
456 35520 29120 29968 25200 31328
457 36288 29504 29968 25200 31328
458 38464 31808 29968 25200 31328
459 39104 32448 29968 25200 31328
460 37824 31744 29936 25216 31312
461 37440 30912 29936 25216 31312
462 36480 30976 29936 25216 31312
463 35072 30912 29936 25216 31312
464 33856 29952 29936 25216 31312
465 32512 30208 29936 25216 31312
466 34240 32768 29936 25216 31312
467 31104 31552 29936 25216 31312
468 29696 30976 29936 25216 31312
469 28800 30272 29936 25216 31312
470 30144 31936 29888 25216 31232
471 29376 31296 29888 25216 31232
472 28352 30976 29888 25216 31232
473 29184 31808 29888 25216 31232
474 29696 31872 29888 25216 31232
475 29568 31296 29888 25216 31232
476 30144 32064 29888 25216 31232
477 30336 32768 29888 25216 31232
478 29952 31808 29888 25216 31232
479 30272 31616 29888 25216 31232
480 29120 30976 29888 25216 31232
481 30336 31552 29888 25216 31232
482 30720 32576 29888 25216 31232
483 30464 31616 29888 25216 31232
484 30208 31168 29888 25216 31232
485 29952 31296 29888 25216 31232
486 29248 31296 29888 25216 31232
487 31232 32576 29888 25216 31232
488 30784 32448 29888 25216 31232
489 30272 32064 29888 25216 31232
490 30208 31424 29888 25184 31296
491 28672 30592 29888 25184 31296
492 31360 32128 29888 25184 31296
493 30976 31936 29888 25184 31296
494 29760 30848 29888 25184 31296
495 30848 31616 29888 25184 31296
496 31872 32576 29888 25184 31296
497 29824 31168 29888 25184 31296
498 29824 30272 29888 25184 31296
499 30528 31680 29888 25184 31296
500 31808 31424 29920 25136 31360
501 30912 30656 29920 25136 31360
502 30400 30080 29920 25136 31360
503 28480 28928 29920 25136 31360
504 28800 29376 29920 25136 31360
505 28608 28928 29920 25136 31360
506 28160 28032 29920 25136 31360
507 31168 30784 29920 25136 31360
508 32384 30656 29920 25136 31360
509 40512 30016 29920 25136 31360
510 51136 29696 29856 25120 31328
511 52864 29696 29856 25120 31328
512 33728 30016 29856 25120 31328
513 24576 29824 29856 25120 31328
514 21888 29760 29856 25120 31328
515 30336 30208 29856 25120 31328
516 34112 29952 29856 25120 31328
517 31872 29056 29856 25120 31328
518 31744 30784 29856 25120 31328
519 31808 30464 29856 25120 31328
520 29632 29760 29888 25152 31312
521 33024 31744 29888 25152 31312
522 31424 30272 29888 25152 31312
523 32128 30528 29888 25152 31312
524 33088 31296 29888 25152 31312
525 31488 30528 29888 25152 31312
526 32960 30592 29888 25152 31312
527 32960 30400 29888 25152 31312
528 32832 30080 29888 25152 31312
529 33856 30784 29888 25152 31312
530 33984 30656 29888 25136 31328
531 33024 29376 29888 25136 31328
532 35712 31680 29888 25136 31328
533 37312 31552 29888 25136 31328
534 38144 31936 29888 25136 31328
535 37696 31808 29888 25136 31328
536 38976 31680 29888 25136 31328
537 38016 31040 29888 25136 31328
538 37696 30848 29888 25136 31328
539 36992 30656 29888 25136 31328
540 37184 31744 29888 25136 31328
541 36160 30784 29888 25136 31328
542 36736 32960 29888 25136 31328
543 35584 32896 29888 25136 31328
544 35456 33600 29888 25136 31328
545 32448 32192 29888 25136 31328
546 32576 32512 29888 25136 31328
547 31168 31680 29888 25136 31328
548 29952 30656 29888 25136 31328
549 29504 30528 29888 25136 31328
550 28800 31168 29888 25152 31328
551 30464 32256 29888 25152 31328
552 31744 33728 29888 25152 31328
553 32064 32768 29888 25152 31328
554 30080 31424 29888 25152 31328
555 30336 31680 29888 25152 31328
556 30848 31488 29888 25152 31328
557 30592 31616 29888 25152 31328
558 30784 31296 29888 25152 31328
559 30464 31616 29888 25152 31328
560 29952 30912 29888 25136 31360
561 30144 30976 29888 25136 31360
562 30848 32512 29888 25136 31360
563 32448 33856 29888 25136 31360
564 31936 33472 29888 25136 31360
565 29504 33152 29888 25136 31360
566 29632 34112 29888 25136 31360
567 29952 35584 29888 25136 31360
568 32512 37632 29888 25136 31360
569 30208 36224 29888 25136 31360
570 30848 35200 29888 25152 31328
571 30016 33920 29888 25152 31328
572 30912 34240 29888 25152 31328
573 30592 34112 29888 25152 31328
574 29248 33088 29888 25152 31328
575 29568 33408 29888 25152 31328
576 30464 34112 29888 25152 31328
577 31616 34304 29888 25152 31328
578 31488 34496 29888 25152 31328
579 31296 34240 29888 25152 31328
580 30400 33728 29888 25152 31328
581 29312 33024 29888 25152 31328
582 29888 33472 29888 25152 31328
583 28800 33088 29888 25152 31328
584 29696 34432 29888 25152 31328
585 30400 34240 29888 25152 31328
586 29056 32576 29888 25152 31328
587 30848 31296 29888 25152 31328
588 41472 33152 29888 25152 31328
589 53760 34368 29888 25152 31328
590 53440 33344 29920 25088 31360
591 33344 32896 29920 25088 31360
592 25664 33792 29920 25088 31360
593 21760 33152 29920 25088 31360
594 29952 33536 29920 25088 31360
595 34432 33856 29920 25088 31360
596 32384 32256 29920 25088 31360
597 32256 33280 29920 25088 31360
598 32192 34432 29920 25088 31360
599 31104 33088 29920 25088 31360
600 30784 32896 29952 25120 31360
601 30976 32704 29952 25120 31360
602 33088 33600 29952 25120 31360
603 32512 33600 29952 25120 31360
604 32960 34176 29952 25120 31360
605 32512 33216 29952 25120 31360
606 33408 33088 29952 25120 31360
607 31680 31296 29952 25120 31360
608 33280 32512 29952 25120 31360
609 34816 33792 29952 25120 31360
610 35520 33536 29920 25136 31328
611 35520 32128 29920 25136 31328
612 33856 30912 29920 25136 31328
613 36800 32704 29920 25136 31328
614 38144 33536 29920 25136 31328
615 38272 33728 29920 25136 31328
616 37504 33344 29920 25136 31328
617 38784 33280 29920 25136 31328
618 38080 33216 29920 25136 31328
619 39296 34432 29920 25136 31328
620 35968 33152 29888 25184 31360
621 35008 32768 29888 25184 31360
622 35008 33216 29888 25184 31360
623 32640 32064 29888 25184 31360
624 31040 31616 29888 25184 31360
625 31936 33792 29888 25184 31360
626 32384 34624 29888 25184 31360
627 29184 32320 29888 25184 31360
628 28928 32384 29888 25184 31360
629 29760 33216 29888 25184 31360
630 30144 33536 29872 25184 31360
631 31360 34304 29872 25184 31360
632 29440 32640 29872 25184 31360
633 28480 31744 29872 25184 31360
634 29376 32064 29872 25184 31360
635 30592 33856 29872 25184 31360
636 30528 32448 29872 25184 31360
637 29248 31168 29872 25184 31360
638 29888 32512 29872 25184 31360
639 31168 33536 29872 25184 31360
640 29824 31872 29872 25184 31360
641 29696 31552 29872 25184 31360
642 30080 32064 29872 25184 31360
643 31360 32896 29872 25184 31360
644 31744 33856 29872 25184 31360
645 30656 32576 29872 25184 31360
646 30656 32960 29872 25184 31360
647 30464 32320 29872 25184 31360
648 31424 33216 29872 25184 31360
649 31360 32064 29872 25184 31360
650 30144 32192 29856 25168 31360
651 30336 32064 29856 25168 31360
652 30784 32512 29856 25168 31360
653 31616 32768 29856 25168 31360
654 30720 32320 29856 25168 31360
655 31232 32576 29856 25168 31360
656 30848 32320 29856 25168 31360
657 31424 32384 29856 25168 31360
658 30656 32448 29856 25168 31360
659 31552 33280 29856 25168 31360
660 30848 32448 29984 25184 31392
661 28864 31744 29984 25184 31392
662 29696 31424 29984 25184 31392
663 28480 30720 29984 25184 31392
664 29248 31104 29984 25184 31392
665 31936 32896 29984 25184 31392
666 37760 33600 29984 25184 31392
667 46656 32448 29984 25184 31392
668 54016 31680 29984 25184 31392
669 45568 31872 29984 25184 31392
670 30656 31808 29952 25184 31344
671 22016 31232 29952 25184 31344
672 26432 32512 29952 25184 31344
673 32576 32960 29952 25184 31344
674 35904 33984 29952 25184 31344
675 32448 32320 29952 25184 31344
676 30720 31680 29952 25184 31344
677 31744 33088 29952 25184 31344
678 31232 32192 29952 25184 31344
679 31040 31936 29952 25184 31344
680 32576 32896 29952 25184 31344
681 32256 31360 29952 25184 31344
682 30784 31040 29952 25184 31344
683 33600 33984 29952 25184 31344
684 33152 32768 29952 25184 31344
685 33216 31936 29952 25184 31344
686 33984 33024 29952 25184 31344
687 35200 33600 29952 25184 31344
688 35392 32896 29952 25184 31344
689 34816 32320 29952 25184 31344
690 35584 31744 29952 25184 31312
691 36224 32384 29952 25184 31312
692 36800 32320 29952 25184 31312
693 37824 32768 29952 25184 31312
694 37760 32832 29952 25184 31312
695 37952 32128 29952 25184 31312
696 37504 31680 29952 25184 31312
697 37760 32128 29952 25184 31312
698 37504 32832 29952 25184 31312
699 37696 34432 29952 25184 31312
700 36672 33920 29888 25056 31392
701 33728 32704 29888 25056 31392
702 32896 32384 29888 25056 31392
703 31040 32256 29888 25056 31392
704 30272 30976 29888 25056 31392
705 30528 32768 29888 25056 31392
706 31168 32704 29888 25056 31392
707 29440 32448 29888 25056 31392
708 29120 31808 29888 25056 31392
709 30272 32576 29888 25056 31392
710 30848 33664 29872 25120 31376
711 30656 33024 29872 25120 31376
712 30272 32576 29872 25120 31376
713 30528 33024 29872 25120 31376
714 29888 32320 29872 25120 31376
715 29888 31744 29872 25120 31376
716 30080 31488 29872 25120 31376
717 30208 31552 29872 25120 31376
718 30016 32000 29872 25120 31376
719 31232 32704 29872 25120 31376
720 30912 32896 29856 25136 31392
721 31360 33280 29856 25136 31392
722 30464 32320 29856 25136 31392
723 30592 32064 29856 25136 31392
724 30400 32064 29856 25136 31392
725 30336 32640 29856 25136 31392
726 31680 32896 29856 25136 31392
727 30528 31616 29856 25136 31392
728 30272 31488 29856 25136 31392
729 31936 33216 29856 25136 31392
730 32768 33664 29888 25184 31296
731 31680 32832 29888 25184 31296
732 30208 31552 29888 25184 31296
733 30592 32064 29888 25184 31296
734 32000 32384 29888 25184 31296
735 31040 32000 29888 25184 31296
736 29696 31424 29888 25184 31296
737 31040 33344 29888 25184 31296
738 30592 32896 29888 25184 31296
739 29312 32064 29888 25184 31296
740 29248 31424 29888 25184 31296
741 30912 32512 29888 25184 31296
742 30400 32384 29888 25184 31296
743 32000 31936 29888 25184 31296
744 37824 32000 29888 25184 31296
745 48704 31488 29888 25184 31296
746 54080 33024 29888 25184 31296
747 39232 32000 29888 25184 31296
748 29120 32576 29888 25184 31296
749 22144 31872 29888 25184 31296
750 26560 31488 29888 25184 31312
751 32320 32192 29888 25184 31312
752 33856 32448 29888 25184 31312
753 31488 31616 29888 25184 31312
754 30080 30976 29888 25184 31312
755 29888 30912 29888 25184 31312
756 31488 32384 29888 25184 31312
757 32448 33152 29888 25184 31312
758 30208 30784 29888 25184 31312
759 31872 32832 29888 25184 31312
760 32576 31808 29920 25152 31312
761 32448 32064 29920 25152 31312
762 30528 30144 29920 25152 31312
763 33152 32128 29920 25152 31312
764 32832 31104 29920 25152 31312
765 34752 33280 29920 25152 31312
766 34368 32000 29920 25152 31312
767 34752 32000 29920 25152 31312
768 35072 31872 29920 25152 31312
769 35200 31616 29920 25152 31312
770 37120 33408 29888 25088 31328
771 38016 33472 29888 25088 31328
772 39040 33280 29888 25088 31328
773 36096 31872 29888 25088 31328
774 36800 32320 29888 25088 31328
775 37056 32256 29888 25088 31328
776 34752 31360 29888 25088 31328
777 34944 32192 29888 25088 31328
778 34560 32704 29888 25088 31328
779 33600 32704 29888 25088 31328
780 31040 32064 29936 25104 31280
781 31104 31936 29936 25104 31280
782 28864 31040 29936 25104 31280
783 29824 31808 29936 25104 31280
784 31232 33984 29936 25104 31280
785 28928 32384 29936 25104 31280
786 30912 33664 29936 25104 31280
787 28480 32128 29936 25104 31280
788 27520 30976 29936 25104 31280
789 28736 31488 29936 25104 31280
790 29952 33344 29936 25104 31280
791 30592 33792 29936 25104 31280
792 29696 32512 29936 25104 31280
793 28736 32448 29936 25104 31280
794 29312 31360 29936 25104 31280
795 29632 32384 29936 25104 31280
796 29760 31936 29936 25104 31280
797 30336 32832 29936 25104 31280
798 30528 32512 29936 25104 31280
799 30784 33024 29936 25104 31280
800 30528 32512 29920 25136 31296
801 30720 32960 29920 25136 31296
802 30080 32064 29920 25136 31296
803 29120 31360 29920 25136 31296
804 29312 31168 29920 25136 31296
805 30720 32704 29920 25136 31296
806 30400 32640 29920 25136 31296
807 30720 32448 29920 25136 31296
808 30464 32384 29920 25136 31296
809 30528 32384 29920 25136 31296
810 30656 32768 29920 25216 31264
811 31616 33600 29920 25216 31264
812 30336 32576 29920 25216 31264
813 30272 32128 29920 25216 31264
814 29952 32128 29920 25216 31264
815 31296 32640 29920 25216 31264
816 29696 31296 29920 25216 31264
817 30720 32704 29920 25216 31264
818 28544 31808 29920 25216 31264
819 29824 32192 29920 25216 31264
820 30080 32512 29968 25168 31328
821 30528 32320 29968 25168 31328
822 30016 32064 29968 25168 31328
823 31680 31872 29968 25168 31328
824 39808 31040 29968 25168 31328
825 50496 31488 29968 25168 31328
826 53184 31488 29968 25168 31328
827 36096 33344 29968 25168 31328
828 26816 32448 29968 25168 31328
829 22080 32704 29968 25168 31328
830 31296 33664 29968 25136 31312
831 33472 33088 29968 25136 31312
832 31040 31296 29968 25136 31312
833 30976 31744 29968 25136 31312
834 30720 31872 29968 25136 31312
835 32128 33600 29968 25136 31312
836 30912 31616 29968 25136 31312
837 30400 31552 29968 25136 31312
838 31872 32192 29968 25136 31312
839 32000 33088 29968 25136 31312
840 33024 33088 29968 25136 31312
841 32256 32320 29968 25136 31312
842 33536 33728 29968 25136 31312
843 32064 31616 29968 25136 31312
844 33344 32704 29968 25136 31312
845 33728 32896 29968 25136 31312
846 34368 32896 29968 25136 31312
847 35904 32704 29968 25136 31312
848 34432 31488 29968 25136 31312
849 35712 31168 29968 25136 31312
850 38016 33472 29952 25088 31488
851 36416 32320 29952 25088 31488
852 38464 32448 29952 25088 31488
853 37504 31936 29952 25088 31488
854 37184 31488 29952 25088 31488
855 36224 32576 29952 25088 31488
856 37248 34304 29952 25088 31488
857 36544 35904 29952 25088 31488
858 34496 35712 29952 25088 31488
859 33088 35968 29952 25088 31488
860 32448 35904 29904 25120 31408
861 30016 35584 29904 25120 31408
862 29120 34048 29904 25120 31408
863 30336 35200 29904 25120 31408
864 30400 35200 29904 25120 31408
865 29376 33856 29904 25120 31408
866 28288 33920 29904 25120 31408
867 28480 33088 29904 25120 31408
868 29376 34112 29904 25120 31408
869 30208 34560 29904 25120 31408
870 30208 34048 29856 25136 31376
871 30016 33536 29856 25136 31376
872 29376 33024 29856 25136 31376
873 27776 31808 29856 25136 31376
874 30016 33408 29856 25136 31376
875 28864 32192 29856 25136 31376
876 28800 32064 29856 25136 31376
877 31040 33920 29856 25136 31376
878 32832 35456 29856 25136 31376
879 31616 34112 29856 25136 31376
880 30272 33664 29888 25120 31456
881 29504 32640 29888 25120 31456
882 28480 31168 29888 25120 31456
883 26368 29056 29888 25120 31456
884 28800 31616 29888 25120 31456
885 29376 31552 29888 25120 31456
886 31168 33216 29888 25120 31456
887 30272 32832 29888 25120 31456
888 31424 35136 29888 25120 31456
889 28480 31040 29888 25120 31456
890 31360 33536 29872 25168 31424
891 32384 34560 29872 25168 31424
892 31872 33600 29872 25168 31424
893 31360 32576 29872 25168 31424
894 28864 31296 29872 25168 31424
895 31104 32320 29872 25168 31424
896 31360 32512 29872 25168 31424
897 30016 32832 29872 25168 31424
898 30272 32512 29872 25168 31424
899 28992 31424 29872 25168 31424
900 29184 31744 29872 25168 31424
901 29696 32128 29872 25168 31424
902 29696 30912 29872 25168 31424
903 28864 31360 29872 25168 31424
904 29824 31744 29872 25168 31424
905 31936 31616 29872 25168 31424
906 39936 31744 29872 25168 31424
907 49024 31552 29872 25168 31424
908 54400 30848 29872 25168 31424
909 36544 30016 29872 25168 31424
910 27008 31296 29824 25152 31344
911 22400 32896 29824 25152 31344
912 28352 32448 29824 25152 31344
913 34112 31744 29824 25152 31344
914 33024 31360 29824 25152 31344
915 28992 29760 29824 25152 31344
916 28928 30208 29824 25152 31344
917 32320 33600 29824 25152 31344
918 32704 33216 29824 25152 31344
919 30848 31040 29824 25152 31344
920 30912 32704 29856 25216 31264
921 32064 35456 29856 25216 31264
922 31104 36864 29856 25216 31264
923 30464 35776 29856 25216 31264
924 29568 42048 29856 25216 31264
925 31488 43264 29856 25216 31264
926 35072 51392 29856 25216 31264
927 33664 52032 29856 25216 31264
928 33216 48640 29856 25216 31264
929 34368 48192 29856 25216 31264
930 34688 48832 29936 25232 31328
931 32000 45632 29936 25232 31328
932 36992 45824 29936 25232 31328
933 36096 43904 29936 25232 31328
934 35264 42176 29936 25232 31328
935 38080 43200 29936 25232 31328
936 36160 40896 29936 25232 31328
937 36480 39232 29936 25232 31328
938 37184 39168 29936 25232 31328
939 34112 37184 29936 25232 31328
940 33536 35456 29936 25232 31328
941 32192 33664 29936 25232 31328
942 31296 34688 29936 25232 31328
943 30336 33152 29936 25232 31328
944 29376 31552 29936 25232 31328
945 30208 31296 29936 25232 31328
946 27008 29376 29936 25232 31328
947 28736 30784 29936 25232 31328
948 31168 30848 29936 25232 31328
949 30592 30400 29936 25232 31328
950 29184 29632 29968 25152 31280
951 29632 27584 29968 25152 31280
952 24960 25600 29968 25152 31280
953 27392 26048 29968 25152 31280
954 31168 29760 29968 25152 31280
955 30016 29696 29968 25152 31280
956 29696 27264 29968 25152 31280
957 28352 29056 29968 25152 31280
958 30272 31936 29968 25152 31280
959 27776 30528 29968 25152 31280
960 28096 36736 29728 25408 31328
961 26944 37568 29728 25408 31328
962 27904 39232 29728 25408 31328
963 28928 38208 29728 25408 31328
964 29760 43392 29728 25408 31328
965 31104 44544 29728 25408 31328
966 30848 42240 29728 25408 31328
967 30848 40064 29728 25408 31328
968 27520 35456 29728 25408 31328
969 28352 35520 29728 25408 31328
970 27200 32512 29616 25360 31264
971 27584 30144 29616 25360 31264
972 28160 29632 29616 25360 31264
973 30720 32640 29616 25360 31264
974 33088 33536 29616 25360 31264
975 31424 32448 29616 25360 31264
976 28160 28352 29616 25360 31264
977 27712 26880 29616 25360 31264
978 31232 29568 29616 25360 31264
979 31488 27392 29616 25360 31264
980 28096 25088 29552 25360 31264
981 28032 26560 29552 25360 31264
982 29888 27200 29552 25360 31264
983 27520 24832 29552 25360 31264
984 30208 27968 29552 25360 31264
985 28480 26176 29552 25360 31264
986 28608 25600 29552 25360 31264
987 29120 23808 29552 25360 31264
988 37696 26304 29552 25360 31264
989 52032 27520 29552 25360 31264
990 54208 26304 29408 25280 31232
991 36928 24896 29408 25280 31232
992 22400 24128 29408 25280 31232
993 22016 29568 29408 25280 31232
994 28352 27776 29408 25280 31232
995 32256 25280 29408 25280 31232
996 33216 26048 29408 25280 31232
997 33920 30016 29408 25280 31232
998 31424 28352 29408 25280 31232
999 30144 26880 29408 25280 31232
1000 29824 25856 29408 25280 31232
1001 28160 24960 29408 25280 31232
1002 30272 25216 29408 25280 31232
1003 32960 29376 29408 25280 31232
1004 32128 27584 29408 25280 31232
1005 32768 28800 29408 25280 31232
1006 32000 27456 29408 25280 31232
1007 32512 27648 29408 25280 31232
1008 32320 26624 29408 25280 31232
1009 32512 26496 29408 25280 31232
1010 31872 24960 29408 25408 31312
1011 32064 25344 29408 25408 31312
1012 38080 30720 29408 25408 31312
1013 37312 29312 29408 25408 31312
1014 37760 29120 29408 25408 31312
1015 37760 28928 29408 25408 31312
1016 37632 28416 29408 25408 31312
1017 38720 28928 29408 25408 31312
1018 35584 27648 29408 25408 31312
1019 35136 26048 29408 25408 31312
1020 35520 28032 29456 25408 31360
1021 33600 26496 29456 25408 31360
1022 32832 27904 29456 25408 31360
1023 34176 29504 29456 25408 31360
1024 31488 29120 29456 25408 31360
1025 32128 30208 29456 25408 31360
1026 31936 30912 29456 25408 31360
1027 29696 28544 29456 25408 31360
1028 28864 28544 29456 25408 31360
1029 28864 28736 29456 25408 31360
1030 27584 26176 29472 25376 31456
1031 27200 27776 29472 25376 31456
1032 29312 30400 29472 25376 31456
1033 29248 29376 29472 25376 31456
1034 30592 30400 29472 25376 31456
1035 29568 29312 29472 25376 31456
1036 28608 28480 29472 25376 31456
1037 29184 29760 29472 25376 31456
1038 30848 30272 29472 25376 31456
1039 29952 29504 29472 25376 31456
1040 29760 28416 29392 25328 31344
1041 28480 27584 29392 25328 31344
1042 28032 27008 29392 25328 31344
1043 28928 28032 29392 25328 31344
1044 32192 32192 29392 25328 31344
1045 31360 31424 29392 25328 31344
1046 30400 29952 29392 25328 31344
1047 29696 28352 29392 25328 31344
1048 30208 29888 29392 25328 31344
1049 29568 28416 29392 25328 31344
1050 27520 27264 29392 25328 31344
1051 28096 28032 29392 25328 31344
1052 28928 28544 29392 25328 31344
1053 33024 31168 29392 25328 31344
1054 32384 31296 29392 25328 31344
1055 30976 31296 29392 25328 31344
1056 30336 29120 29392 25328 31344
1057 28032 27200 29392 25328 31344
1058 30528 29568 29392 25328 31344
1059 29440 28672 29392 25328 31344
1060 27712 26496 29376 25408 31440
1061 29568 29248 29376 25408 31440
1062 31680 30784 29376 25408 31440
1063 29120 29312 29376 25408 31440
1064 30208 31040 29376 25408 31440
1065 30720 31360 29376 25408 31440
1066 30592 31744 29376 25408 31440
1067 30016 30528 29376 25408 31440
1068 29504 30144 29376 25408 31440
1069 30336 28288 29376 25408 31440
1070 37376 24256 29408 25312 31328
1071 51008 29760 29408 25312 31328
1072 54528 32128 29408 25312 31328
1073 35392 31680 29408 25312 31328
1074 25216 30912 29408 25312 31328
1075 20416 30784 29408 25312 31328
1076 30464 29504 29408 25312 31328
1077 36992 30208 29408 25312 31328
1078 33280 28352 29408 25312 31328
1079 28288 26880 29408 25312 31328
1080 30592 29248 29440 25280 31360
1081 31168 30720 29440 25280 31360
1082 33024 31808 29440 25280 31360
1083 32704 31040 29440 25280 31360
1084 32576 30976 29440 25280 31360
1085 31360 29440 29440 25280 31360
1086 33600 32320 29440 25280 31360
1087 33216 30208 29440 25280 31360
1088 30848 28544 29440 25280 31360
1089 29632 27136 29440 25280 31360
1090 33920 31616 29456 25312 31360
1091 33024 29888 29456 25312 31360
1092 34112 29824 29456 25312 31360
1093 37696 33728 29456 25312 31360
1094 36736 31872 29456 25312 31360
1095 33536 28160 29456 25312 31360
1096 37824 30976 29456 25312 31360
1097 37696 32704 29456 25312 31360
1098 38336 31360 29456 25312 31360
1099 37952 31424 29456 25312 31360
1100 36224 29568 29456 25312 31360
1101 35264 30144 29456 25312 31360
1102 35200 30592 29456 25312 31360
1103 34816 30912 29456 25312 31360
1104 33536 30656 29456 25312 31360
1105 34368 32320 29456 25312 31360
1106 31808 31232 29456 25312 31360
1107 30720 30336 29456 25312 31360
1108 31104 31552 29456 25312 31360
1109 29952 31680 29456 25312 31360
1110 30336 31680 29440 25312 31392
1111 26624 28480 29440 25312 31392
1112 25984 27648 29440 25312 31392
1113 29952 31168 29440 25312 31392
1114 30592 32384 29440 25312 31392
1115 31168 32512 29440 25312 31392
1116 29696 30784 29440 25312 31392
1117 29440 30720 29440 25312 31392
1118 30272 30464 29440 25312 31392
1119 27840 27968 29440 25312 31392
1120 28672 30912 29456 25360 31408
1121 30400 31552 29456 25360 31408
1122 29760 31040 29456 25360 31408
1123 32704 32640 29456 25360 31408
1124 28672 29952 29456 25360 31408
1125 28288 28736 29456 25360 31408
1126 28416 29632 29456 25360 31408
1127 33088 34432 29456 25360 31408
1128 32256 33792 29456 25360 31408
1129 31104 32640 29456 25360 31408
1130 28928 30592 29504 25392 31392
1131 28672 29888 29504 25392 31392
1132 28608 28800 29504 25392 31392
1133 28800 29952 29504 25392 31392
1134 30912 31808 29504 25392 31392
1135 32768 33728 29504 25392 31392
1136 30784 30912 29504 25392 31392
1137 29248 29760 29504 25392 31392
1138 29888 30656 29504 25392 31392
1139 30720 32512 29504 25392 31392
1140 32192 32768 29664 25312 31392
1141 31360 33152 29664 25312 31392
1142 31552 33024 29664 25312 31392
1143 31104 33024 29664 25312 31392
1144 28672 31360 29664 25312 31392
1145 26880 29952 29664 25312 31392
1146 28544 30464 29664 25312 31392
1147 30656 32448 29664 25312 31392
1148 31808 33408 29664 25312 31392
1149 29120 31040 29664 25312 31392
1150 33472 33024 29664 25312 31392
1151 40320 31168 29664 25312 31392
1152 50240 30592 29664 25312 31392
1153 52288 32832 29664 25312 31392
1154 36096 33408 29664 25312 31392
1155 24896 30080 29664 25312 31392
1156 21760 31104 29664 25312 31392
1157 29760 31232 29664 25312 31392
1158 33088 31744 29664 25312 31392
1159 33664 32000 29664 25312 31392
1160 32576 33344 29632 25280 31376
1161 30656 30592 29632 25280 31376
1162 31616 32448 29632 25280 31376
1163 32704 32000 29632 25280 31376
1164 31040 31552 29632 25280 31376
1165 31296 31680 29632 25280 31376
1166 30784 30976 29632 25280 31376
1167 34624 33664 29632 25280 31376
1168 32448 32000 29632 25280 31376
1169 31552 30784 29632 25280 31376
1170 33472 32384 29600 25248 31376
1171 32832 30976 29600 25248 31376
1172 35456 32000 29600 25248 31376
1173 34368 31744 29600 25248 31376
1174 35264 32512 29600 25248 31376
1175 34368 31552 29600 25248 31376
1176 35520 32064 29600 25248 31376
1177 38720 34752 29600 25248 31376
1178 38528 34240 29600 25248 31376
1179 36288 31616 29600 25248 31376
1180 36480 31488 29568 25312 31328
1181 35392 30848 29568 25312 31328
1182 38272 34368 29568 25312 31328
1183 37824 33472 29568 25312 31328
1184 32960 30400 29568 25312 31328
1185 35008 33920 29568 25312 31328
1186 31680 31360 29568 25312 31328
1187 32320 32960 29568 25312 31328
1188 33856 35008 29568 25312 31328
1189 30208 32576 29568 25312 31328
1190 31232 34048 29584 25248 31344
1191 28608 31424 29584 25248 31344
1192 27712 30784 29584 25248 31344
1193 28736 32000 29584 25248 31344
1194 28672 32000 29584 25248 31344
1195 30464 33600 29584 25248 31344
1196 30528 33216 29584 25248 31344
1197 26944 30208 29584 25248 31344
1198 28608 30464 29584 25248 31344
1199 31168 33536 29584 25248 31344
1200 30720 33152 29584 25248 31344
1201 29376 32512 29584 25248 31344
1202 30400 32576 29584 25248 31344
1203 30400 31936 29584 25248 31344
1204 29824 31424 29584 25248 31344
1205 28224 30656 29584 25248 31344
1206 32768 34240 29584 25248 31344
1207 30016 32640 29584 25248 31344
1208 30336 31616 29584 25248 31344
1209 28608 31296 29584 25248 31344
1210 28416 31424 29584 25280 31376
1211 29952 32768 29584 25280 31376
1212 30720 33216 29584 25280 31376
1213 30784 33088 29584 25280 31376
1214 30912 33152 29584 25280 31376
1215 30592 33152 29584 25280 31376
1216 28160 30272 29584 25280 31376
1217 29504 31552 29584 25280 31376
1218 29952 32192 29584 25280 31376
1219 30144 32640 29584 25280 31376
1220 27776 30592 29504 25280 31424
1221 28992 31104 29504 25280 31424
1222 33088 34624 29504 25280 31424
1223 29888 32192 29504 25280 31424
1224 30976 33920 29504 25280 31424
1225 31296 33472 29504 25280 31424
1226 27648 30976 29504 25280 31424
1227 29952 33152 29504 25280 31424
1228 29824 32768 29504 25280 31424
1229 27136 30400 29504 25280 31424
1230 30080 32128 29552 25280 31408
1231 33984 32384 29552 25280 31408
1232 41728 30720 29552 25280 31408
1233 53120 33536 29552 25280 31408
1234 50048 33088 29552 25280 31408
1235 29888 30912 29552 25280 31408
1236 25984 33536 29552 25280 31408
1237 22464 32000 29552 25280 31408
1238 31552 32704 29552 25280 31408
1239 32704 31680 29552 25280 31408
1240 32896 32000 29584 25296 31440
1241 29824 31040 29584 25296 31440
1242 31424 32960 29584 25296 31440
1243 32512 33152 29584 25296 31440
1244 32128 32640 29584 25296 31440
1245 30592 31552 29584 25296 31440
1246 31168 32256 29584 25296 31440
1247 32896 33408 29584 25296 31440
1248 29376 30016 29584 25296 31440
1249 29888 30144 29584 25296 31440
1250 34688 33024 29632 25216 31456
1251 33088 32448 29632 25216 31456
1252 33216 32064 29632 25216 31456
1253 34944 32896 29632 25216 31456
1254 33792 32768 29632 25216 31456
1255 34496 32192 29632 25216 31456
1256 32960 30144 29632 25216 31456
1257 36864 33216 29632 25216 31456
1258 35392 30848 29632 25216 31456
1259 36736 31616 29632 25216 31456
1260 38400 33536 29632 25216 31456
1261 39872 34624 29632 25216 31456
1262 36352 32128 29632 25216 31456
1263 35008 31872 29632 25216 31456
1264 36672 34240 29632 25216 31456
1265 35200 35840 29632 25216 31456
1266 29184 35776 29632 25216 31456
1267 32512 41280 29632 25216 31456
1268 28800 44800 29632 25216 31456
1269 29568 47680 29632 25216 31456
1270 30464 47040 29664 25248 31408
1271 28992 51264 29664 25248 31408
1272 26368 46976 29664 25248 31408
1273 26432 46720 29664 25248 31408
1274 26560 46784 29664 25248 31408
1275 25664 44608 29664 25248 31408
1276 28800 44608 29664 25248 31408
1277 28800 45248 29664 25248 31408
1278 27264 40128 29664 25248 31408
1279 31040 44160 29664 25248 31408
1280 31488 38976 29600 25232 31376
1281 24768 35456 29600 25232 31376
1282 27392 37056 29600 25232 31376
1283 31808 36928 29600 25232 31376
1284 25792 32640 29600 25232 31376
1285 33472 37952 29600 25232 31376
1286 30528 33152 29600 25232 31376
1287 29376 33152 29600 25232 31376
1288 27584 31616 29600 25232 31376
1289 31680 31168 29600 25232 31376
1290 26304 27904 29536 25312 31360
1291 30528 32064 29536 25312 31360
1292 27904 30272 29536 25312 31360
1293 29696 30400 29536 25312 31360
1294 32832 32768 29536 25312 31360
1295 31040 32640 29536 25312 31360
1296 29376 30592 29536 25312 31360
1297 29952 32064 29536 25312 31360
1298 29568 27456 29536 25312 31360
1299 24960 25664 29536 25312 31360
1300 34560 34048 29520 25184 31408
1301 35072 33856 29520 25184 31408
1302 25600 27968 29520 25184 31408
1303 34048 37376 29520 25184 31408
1304 31680 39552 29520 25184 31408
1305 30784 42368 29520 25184 31408
1306 29760 40000 29520 25184 31408
1307 28480 42816 29520 25184 31408
1308 29696 43776 29520 25184 31408
1309 28288 49088 29520 25184 31408
1310 25216 41984 29520 25184 31408
1311 29120 43648 29520 25184 31408
1312 28544 45696 29520 25184 31408
1313 26240 37184 29520 25184 31408
1314 37248 43584 29520 25184 31408
1315 48960 42816 29520 25184 31408
1316 53696 39616 29520 25184 31408
1317 40384 35840 29520 25184 31408
1318 24128 33472 29520 25184 31408
1319 22144 37376 29520 25184 31408
1320 26944 37248 29536 25632 31440
1321 35072 34560 29536 25632 31440
1322 35712 36416 29536 25632 31440
1323 32192 34432 29536 25632 31440
1324 31104 32768 29536 25632 31440
1325 30272 30656 29536 25632 31440
1326 28224 28224 29536 25632 31440
1327 27072 28736 29536 25632 31440
1328 32832 33408 29536 25632 31440
1329 33856 32832 29536 25632 31440
1330 30464 30336 29152 25248 31296
1331 32256 31872 29152 25248 31296
1332 33152 32192 29152 25248 31296
1333 32640 29056 29152 25248 31296
1334 27712 25472 29152 25248 31296
1335 30784 28736 29152 25248 31296
1336 33920 31680 29152 25248 31296
1337 35328 32576 29152 25248 31296
1338 33920 29888 29152 25248 31296
1339 31040 25664 29152 25248 31296
1340 37952 32384 29056 25296 31312
1341 38016 33344 29056 25296 31312
1342 34880 29056 29056 25296 31312
1343 35136 29504 29056 25296 31312
1344 34880 29568 29056 25296 31312
1345 30720 27072 29056 25296 31312
1346 35392 31744 29056 25296 31312
1347 34496 32448 29056 25296 31312
1348 36032 34368 29056 25296 31312
1349 32704 33280 29056 25296 31312
1350 30592 31616 28976 25024 30960
1351 30720 32320 28976 25024 30960
1352 29696 31360 28976 25024 30960
1353 29376 31296 28976 25024 30960
1354 27776 31936 28976 25024 30960
1355 23616 29376 28976 25024 30960
1356 23360 28416 28976 25024 30960
1357 31104 35904 28976 25024 30960
1358 30848 37888 28976 25024 30960
1359 29184 39104 28976 25024 30960
1360 28352 40000 28976 25024 30960
1361 28928 43648 28976 25024 30960
1362 27712 44288 28976 25024 30960
1363 27648 46208 28976 25024 30960
1364 27648 47680 28976 25024 30960
1365 26624 47424 28976 25024 30960
1366 28032 45824 28976 25024 30960
1367 28480 45120 28976 25024 30960
1368 29184 46272 28976 25024 30960
1369 30464 43776 28976 25024 30960
1370 29696 40384 28384 23392 31648
1371 29696 44416 28384 23392 31648
1372 28480 40000 28384 23392 31648
1373 28864 39424 28384 23392 31648
1374 30016 38784 28384 23392 31648
1375 29504 36672 28384 23392 31648
1376 29696 38912 28384 23392 31648
1377 28672 36096 28384 23392 31648
1378 30080 37952 28384 23392 31648
1379 29376 36480 28384 23392 31648
1380 30464 33600 28544 24096 31440
1381 31168 36288 28544 24096 31440
1382 30336 35968 28544 24096 31440
1383 29504 34048 28544 24096 31440
1384 30528 34560 28544 24096 31440
1385 30976 36608 28544 24096 31440
1386 29760 35392 28544 24096 31440
1387 30144 35136 28544 24096 31440
1388 29376 33344 28544 24096 31440
1389 30016 33472 28544 24096 31440
1390 23936 33216 29280 25040 30480
1391 21824 30016 29280 25040 30480
1392 21184 27072 29280 25040 30480
1393 24064 30784 29280 25040 30480
1394 24064 25856 29280 25040 30480
1395 24320 27200 29280 25040 30480
1396 24320 25472 29280 25040 30480
1397 29440 25152 29280 25040 30480
1398 49920 36416 29280 25040 30480
1399 54912 34624 29280 25040 30480
1400 46080 35200 28640 25856 28512
1401 28288 34816 28640 25856 28512
1402 23680 32320 28640 25856 28512
1403 26112 32448 28640 25856 28512
1404 32000 33024 28640 25856 28512
1405 32512 36288 28640 25856 28512
1406 30528 33984 28640 25856 28512
1407 28992 32576 28640 25856 28512
1408 30208 33472 28640 25856 28512
1409 28608 32448 28640 25856 28512
1410 31424 29696 28640 25856 28512
1411 30272 33920 28640 25856 28512
1412 31424 34304 28640 25856 28512
1413 30720 33280 28640 25856 28512
1414 31552 32768 28640 25856 28512
1415 31488 32256 28640 25856 28512
1416 30464 30720 28640 25856 28512
1417 33472 33536 28640 25856 28512
1418 33600 35584 28640 25856 28512
1419 35776 35520 28640 25856 28512
1420 34688 34304 28720 26560 28992
1421 35584 34240 28720 26560 28992
1422 35328 35456 28720 26560 28992
1423 34752 32256 28720 26560 28992
1424 34432 31936 28720 26560 28992
1425 36160 35840 28720 26560 28992
1426 39104 38592 28720 26560 28992
1427 37568 36800 28720 26560 28992
1428 36736 35008 28720 26560 28992
1429 36608 36352 28720 26560 28992
1430 35840 34816 28304 26624 29680
1431 34432 34816 28304 26624 29680
1432 34688 34496 28304 26624 29680
1433 32192 35712 28304 26624 29680
1434 32000 33664 28304 26624 29680
1435 31424 36224 28304 26624 29680
1436 30336 34944 28304 26624 29680
1437 31360 35712 28304 26624 29680
1438 29568 35200 28304 26624 29680
1439 30144 34816 28304 26624 29680
1440 29696 35520 27872 25856 29984
1441 31040 34944 27872 25856 29984
1442 30400 34368 27872 25856 29984
1443 30144 36800 27872 25856 29984
1444 30528 35584 27872 25856 29984
1445 30336 35520 27872 25856 29984
1446 29568 34752 27872 25856 29984
1447 32128 38144 27872 25856 29984
1448 31360 37824 27872 25856 29984
1449 31936 35520 27872 25856 29984
1450 32128 34624 28016 26208 29904
1451 31872 37120 28016 26208 29904
1452 30976 34816 28016 26208 29904
1453 30656 34368 28016 26208 29904
1454 29312 36160 28016 26208 29904
1455 30784 35392 28016 26208 29904
1456 31552 36288 28016 26208 29904
1457 32384 37184 28016 26208 29904
1458 31168 37760 28016 26208 29904
1459 30976 36224 28016 26208 29904
1460 31488 35840 28016 26208 29904
1461 31232 35968 28016 26208 29904
1462 30784 36224 28016 26208 29904
1463 30592 35072 28016 26208 29904
1464 31168 36608 28016 26208 29904
1465 31168 35456 28016 26208 29904
1466 31424 35968 28016 26208 29904
1467 31168 36416 28016 26208 29904
1468 31616 36672 28016 26208 29904
1469 31424 36224 28016 26208 29904
1470 29952 35008 28192 26368 29888
1471 30592 35776 28192 26368 29888
1472 28224 33984 28192 26368 29888
1473 26240 31808 28192 26368 29888
1474 29952 35712 28192 26368 29888
1475 31296 38016 28192 26368 29888
1476 30208 36736 28192 26368 29888
1477 31168 39104 28192 26368 29888
1478 30464 35200 28192 26368 29888
1479 28864 35264 28192 26368 29888
1480 29568 35648 28480 26656 30144
1481 30144 34112 28480 26656 30144
1482 36032 31616 28480 26656 30144
1483 42304 28480 28480 26656 30144
1484 41280 27392 28480 26656 30144
1485 34240 37824 28480 26656 30144
1486 24320 34048 28480 26656 30144
1487 19392 36480 28480 26656 30144
1488 26432 31872 28480 26656 30144
1489 30144 32832 28480 26656 30144
1490 29632 32064 28544 26512 30000
1491 26880 31040 28544 26512 30000
1492 22976 26944 28544 26512 30000
1493 21504 26688 28544 26512 30000
1494 29120 34624 28544 26512 30000
1495 29056 33088 28544 26512 30000
1496 28096 33472 28544 26512 30000
1497 28352 34048 28544 26512 30000
1498 27264 31680 28544 26512 30000
1499 25600 31232 28544 26512 30000
1500 26176 32768 28608 26416 29968
1501 27328 33152 28608 26416 29968
1502 24768 31296 28608 26416 29968
1503 24576 31808 28608 26416 29968
1504 25792 33920 28608 26416 29968
1505 24192 32640 28608 26416 29968
1506 30848 39424 28608 26416 29968
1507 27264 35584 28608 26416 29968
1508 29888 36160 28608 26416 29968
1509 32128 36416 28608 26416 29968
1510 24960 27200 28384 26240 30144
1511 21760 24512 28384 26240 30144
1512 33536 32704 28384 26240 30144
1513 23488 21952 28384 26240 30144
1514 23744 24576 28384 26240 30144
1515 35072 33600 28384 26240 30144
1516 23872 24640 28384 26240 30144
1517 14400 16704 28384 26240 30144
1518 31424 34176 28384 26240 30144
1519 24640 27264 28384 26240 30144
1520 19072 23168 28384 26240 30144
1521 21632 25152 28384 26240 30144
1522 21440 24768 28384 26240 30144
1523 15040 17024 28384 26240 30144
1524 15232 19264 28384 26240 30144
1525 24512 28928 28384 26240 30144
1526 23744 26048 28384 26240 30144
1527 19200 22016 28384 26240 30144
1528 16960 20864 28384 26240 30144
1529 20224 23232 28384 26240 30144
1530 10432 12864 28240 26384 30160
1531 14400 17664 28240 26384 30160
1532 25792 28096 28240 26384 30160
1533 11840 15872 28240 26384 30160
1534 26048 28736 28240 26384 30160
1535 25792 26944 28240 26384 30160
1536 20416 21184 28240 26384 30160
1537 22656 24000 28240 26384 30160
1538 21568 23104 28240 26384 30160
1539 17152 18304 28240 26384 30160
1540 15552 16832 28192 26416 30224
1541 29376 30528 28192 26416 30224
1542 27136 25536 28192 26416 30224
1543 24576 23808 28192 26416 30224
1544 25984 23808 28192 26416 30224
1545 23104 23424 28192 26416 30224
1546 18752 17728 28192 26416 30224
1547 23616 22848 28192 26416 30224
1548 34368 31680 28192 26416 30224
1549 30912 30720 28192 26416 30224
1550 31360 32704 28288 27136 29888
1551 31616 32256 28288 27136 29888
1552 30144 30080 28288 27136 29888
1553 24512 25024 28288 27136 29888
1554 30528 31296 28288 27136 29888
1555 30848 30656 28288 27136 29888
1556 18560 19840 28288 27136 29888
1557 39680 39360 28288 27136 29888
1558 36992 38720 28288 27136 29888
1559 31808 33536 28288 27136 29888
1560 29568 32512 28256 26976 29840
1561 28736 31168 28256 26976 29840
1562 29248 31552 28256 26976 29840
1563 26496 27968 28256 26976 29840
1564 23936 25984 28256 26976 29840
1565 38528 35456 28256 26976 29840
1566 52096 36224 28256 26976 29840
1567 53568 34240 28256 26976 29840
1568 38144 32960 28256 26976 29840
1569 24000 29056 28256 26976 29840
1570 22080 32448 28256 26976 29840
1571 22976 29056 28256 26976 29840
1572 29568 29568 28256 26976 29840
1573 29440 28544 28256 26976 29840
1574 36544 37184 28256 26976 29840
1575 32640 34496 28256 26976 29840
1576 33344 32896 28256 26976 29840
1577 32192 32192 28256 26976 29840
1578 33984 34112 28256 26976 29840
1579 32320 31744 28256 26976 29840
1580 29056 28032 28096 27008 29856
1581 23616 23616 28096 27008 29856
1582 34304 33088 28096 27008 29856
1583 34176 31616 28096 27008 29856
1584 31936 29312 28096 27008 29856
1585 34496 33664 28096 27008 29856
1586 40384 37376 28096 27008 29856
1587 36544 32896 28096 27008 29856
1588 35648 31552 28096 27008 29856
1589 35584 31168 28096 27008 29856
1590 32192 26560 27904 27072 29920
1591 27392 22400 27904 27072 29920
1592 36224 30976 27904 27072 29920
1593 38976 32256 27904 27072 29920
1594 42176 35264 27904 27072 29920
1595 37312 31296 27904 27072 29920
1596 33664 28032 27904 27072 29920
1597 35392 30656 27904 27072 29920
1598 34048 32768 27904 27072 29920
1599 32256 33536 27904 27072 29920
1600 33088 36224 27936 26912 30048
1601 27968 33920 27936 26912 30048
1602 26496 32384 27936 26912 30048
1603 29696 38400 27936 26912 30048
1604 34816 42112 27936 26912 30048
1605 29632 37952 27936 26912 30048
1606 27520 35584 27936 26912 30048
1607 29312 37312 27936 26912 30048
1608 28544 35648 27936 26912 30048
1609 26496 33472 27936 26912 30048
1610 25536 31424 28176 26592 30160
1611 23616 31232 28176 26592 30160
1612 28800 34112 28176 26592 30160
1613 28736 34880 28176 26592 30160
1614 28544 33216 28176 26592 30160
1615 28800 33728 28176 26592 30160
1616 31296 37760 28176 26592 30160
1617 30912 34624 28176 26592 30160
1618 29824 34944 28176 26592 30160
1619 25920 30592 28176 26592 30160
1620 22080 27392 28176 26592 30160
1621 31808 35520 28176 26592 30160
1622 28352 32192 28176 26592 30160
1623 21952 26432 28176 26592 30160
1624 34880 37824 28176 26592 30160
1625 33792 36480 28176 26592 30160
1626 30720 34752 28176 26592 30160
1627 30272 31936 28176 26592 30160
1628 29120 32896 28176 26592 30160
1629 27904 30400 28176 26592 30160
1630 23808 27008 27904 26432 30240
1631 32128 34368 27904 26432 30240
1632 26880 29184 27904 26432 30240
1633 30848 33920 27904 26432 30240
1634 33856 35776 27904 26432 30240
1635 29504 31680 27904 26432 30240
1636 25024 27968 27904 26432 30240
1637 33856 35520 27904 26432 30240
1638 33472 34240 27904 26432 30240
1639 30912 32768 27904 26432 30240
1640 28096 30848 28016 26368 30336
1641 29952 33088 28016 26368 30336
1642 26048 28736 28016 26368 30336
1643 27712 31232 28016 26368 30336
1644 31552 32000 28016 26368 30336
1645 30400 33728 28016 26368 30336
1646 31488 32704 28016 26368 30336
1647 32256 31936 28016 26368 30336
1648 41024 33344 28016 26368 30336
1649 48192 29248 28016 26368 30336
1650 54848 34112 28000 26800 30240
1651 37696 34112 28000 26800 30240
1652 20864 27264 28000 26800 30240
1653 16256 27904 28000 26800 30240
1654 32192 36608 28000 26800 30240
1655 33728 32704 28000 26800 30240
1656 35776 35712 28000 26800 30240
1657 34496 33664 28000 26800 30240
1658 31232 32832 28000 26800 30240
1659 26048 27776 28000 26800 30240
1660 27264 30208 27968 26752 29920
1661 37440 37632 27968 26752 29920
1662 30528 31936 27968 26752 29920
1663 32192 30976 27968 26752 29920
1664 38656 38400 27968 26752 29920
1665 36288 35264 27968 26752 29920
1666 32448 30400 27968 26752 29920
1667 32512 34752 27968 26752 29920
1668 36480 36736 27968 26752 29920
1669 31168 26752 27968 26752 29920
1670 32960 32960 27968 26752 29920
1671 40960 36736 27968 26752 29920
1672 36864 34048 27968 26752 29920
1673 38016 33792 27968 26752 29920
1674 44800 37632 27968 26752 29920
1675 41408 35392 27968 26752 29920
1676 39552 31616 27968 26752 29920
1677 33152 29312 27968 26752 29920
1678 35584 30592 27968 26752 29920
1679 43584 38016 27968 26752 29920
1680 41152 37440 27936 26608 29920
1681 32128 30208 27936 26608 29920
1682 45312 41536 27936 26608 29920
1683 39168 37696 27936 26608 29920
1684 34496 35392 27936 26608 29920
1685 28224 29120 27936 26608 29920
1686 33408 32896 27936 26608 29920
1687 23424 26752 27936 26608 29920
1688 39424 40896 27936 26608 29920
1689 32448 35392 27936 26608 29920
1690 33920 38464 28000 26688 29920
1691 33472 35904 28000 26688 29920
1692 34368 36928 28000 26688 29920
1693 33792 36032 28000 26688 29920
1694 30528 32640 28000 26688 29920
1695 26560 28416 28000 26688 29920
1696 26880 29312 28000 26688 29920
1697 34048 35584 28000 26688 29920
1698 36992 39488 28000 26688 29920
1699 37312 39552 28000 26688 29920
1700 34816 37184 27392 27200 29984
1701 34944 36672 27392 27200 29984
1702 33024 34944 27392 27200 29984
1703 30784 32512 27392 27200 29984
1704 27648 29120 27392 27200 29984
1705 30720 33280 27392 27200 29984
1706 34176 35520 27392 27200 29984
1707 36352 37696 27392 27200 29984
1708 36160 37632 27392 27200 29984
1709 35584 38336 27392 27200 29984
1710 33664 34880 27488 27168 30128
1711 34432 36608 27488 27168 30128
1712 32576 33024 27488 27168 30128
1713 26048 27456 27488 27168 30128
1714 29312 31040 27488 27168 30128
1715 38016 37888 27488 27168 30128
1716 35904 37504 27488 27168 30128
1717 34496 35840 27488 27168 30128
1718 35904 36672 27488 27168 30128
1719 35712 36416 27488 27168 30128
1720 34752 34816 27488 27168 30128
1721 29376 30080 27488 27168 30128
1722 31936 33856 27488 27168 30128
1723 31552 34368 27488 27168 30128
1724 36928 38720 27488 27168 30128
1725 36160 36032 27488 27168 30128
1726 33280 36736 27488 27168 30128
1727 35200 36096 27488 27168 30128
1728 32896 30976 27488 27168 30128
1729 46272 35712 27488 27168 30128
1730 58304 37184 27568 26928 30272
1731 52800 35136 27568 26928 30272
1732 30784 31552 27568 26928 30272
1733 25152 33984 27568 26928 30272
1734 25280 34752 27568 26928 30272
1735 39168 39552 27568 26928 30272
1736 39616 37056 27568 26928 30272
1737 39552 38080 27568 26928 30272
1738 34688 34752 27568 26928 30272
1739 31168 31360 27568 26928 30272
1740 38976 36608 27744 26944 30496
1741 30976 31808 27744 26944 30496
1742 35968 34624 27744 26944 30496
1743 42304 42112 27744 26944 30496
1744 38016 37120 27744 26944 30496
1745 35264 34496 27744 26944 30496
1746 37568 36352 27744 26944 30496
1747 39168 37248 27744 26944 30496
1748 34496 32640 27744 26944 30496
1749 38592 35520 27744 26944 30496
1750 35776 32320 27680 26992 30576
1751 38528 35520 27680 26992 30576
1752 44928 40960 27680 26992 30576
1753 41792 37248 27680 26992 30576
1754 42112 36032 27680 26992 30576
1755 40192 34816 27680 26992 30576
1756 46336 40320 27680 26992 30576
1757 44480 36800 27680 26992 30576
1758 40064 34176 27680 26992 30576
1759 41344 33920 27680 26992 30576
1760 35264 31936 27552 27040 30672
1761 42176 36352 27552 27040 30672
1762 43968 39872 27552 27040 30672
1763 37312 34624 27552 27040 30672
1764 39680 38464 27552 27040 30672
1765 38016 38016 27552 27040 30672
1766 36544 36736 27552 27040 30672
1767 35520 36544 27552 27040 30672
1768 34624 35136 27552 27040 30672
1769 27968 30080 27552 27040 30672
1770 31744 32576 27552 27040 30672
1771 36096 37760 27552 27040 30672
1772 34368 36032 27552 27040 30672
1773 36608 39296 27552 27040 30672
1774 38400 39104 27552 27040 30672
1775 36288 38016 27552 27040 30672
1776 35456 36288 27552 27040 30672
1777 31680 32704 27552 27040 30672
1778 29056 30912 27552 27040 30672
1779 29760 31488 27552 27040 30672
1780 34880 35520 27520 27008 30816
1781 38912 39104 27520 27008 30816
1782 41152 42112 27520 27008 30816
1783 38016 38400 27520 27008 30816
1784 35520 36544 27520 27008 30816
1785 34944 35904 27520 27008 30816
1786 34944 34304 27520 27008 30816
1787 27136 28544 27520 27008 30816
1788 35968 36800 27520 27008 30816
1789 37888 37440 27520 27008 30816
1790 35648 35648 27456 26976 30816
1791 36992 37056 27456 26976 30816
1792 33280 34688 27456 26976 30816
1793 40960 40512 27456 26976 30816
1794 37952 39104 27456 26976 30816
1795 37440 36480 27456 26976 30816
1796 35712 36096 27456 26976 30816
1797 33216 32000 27456 26976 30816
1798 33024 32768 27456 26976 30816
1799 30592 32256 27456 26976 30816
1800 43264 43712 27472 26896 30832
1801 37376 37952 27472 26896 30832
1802 33472 34752 27472 26896 30832
1803 36928 38528 27472 26896 30832
1804 37056 37632 27472 26896 30832
1805 34688 34944 27472 26896 30832
1806 34560 34432 27472 26896 30832
1807 36224 34240 27472 26896 30832
1808 46912 34944 27472 26896 30832
1809 57792 37248 27472 26896 30832
1810 55488 35712 27424 26848 30944
1811 37760 37056 27424 26848 30944
1812 29376 34688 27424 26848 30944
1813 30592 38976 27424 26848 30944
1814 38080 38656 27424 26848 30944
1815 41472 38208 27424 26848 30944
1816 39168 37376 27424 26848 30944
1817 38272 36352 27424 26848 30944
1818 35328 35200 27424 26848 30944
1819 34048 32512 27424 26848 30944
1820 33024 32768 27392 26928 30880
1821 36608 36608 27392 26928 30880
1822 40192 39872 27392 26928 30880
1823 43968 41856 27392 26928 30880
1824 37376 35968 27392 26928 30880
1825 40896 37504 27392 26928 30880
1826 40256 37952 27392 26928 30880
1827 39104 35584 27392 26928 30880
1828 36928 32640 27392 26928 30880
1829 34176 30016 27392 26928 30880
1830 40064 35584 27392 26928 30880
1831 44416 39936 27392 26928 30880
1832 45824 39424 27392 26928 30880
1833 44480 38784 27392 26928 30880
1834 43328 36672 27392 26928 30880
1835 43584 35328 27392 26928 30880
1836 42816 36352 27392 26928 30880
1837 45568 37696 27392 26928 30880
1838 43200 35904 27392 26928 30880
1839 41216 34432 27392 26928 30880
1840 42944 37312 27328 26976 30848
1841 41600 37504 27328 26976 30848
1842 38208 34496 27328 26976 30848
1843 38464 35712 27328 26976 30848
1844 39488 37312 27328 26976 30848
1845 38592 37952 27328 26976 30848
1846 37888 37632 27328 26976 30848
1847 35072 35136 27328 26976 30848
1848 33024 34048 27328 26976 30848
1849 31488 32704 27328 26976 30848
1850 34112 35200 27456 26912 30880
1851 35648 36032 27456 26912 30880
1852 31424 32512 27456 26912 30880
1853 38336 40064 27456 26912 30880
1854 38464 39232 27456 26912 30880
1855 38080 39040 27456 26912 30880
1856 37248 37312 27456 26912 30880
1857 35712 35072 27456 26912 30880
1858 33536 34432 27456 26912 30880
1859 36032 36224 27456 26912 30880
1860 34752 35264 27456 26928 30848
1861 34624 33920 27456 26928 30848
1862 36736 37312 27456 26928 30848
1863 34304 34816 27456 26928 30848
1864 39104 38912 27456 26928 30848
1865 36736 37440 27456 26928 30848
1866 36800 36928 27456 26928 30848
1867 32704 32896 27456 26928 30848
1868 36416 36032 27456 26928 30848
1869 39040 38784 27456 26928 30848
1870 37056 36544 27424 26944 30832
1871 35520 34880 27424 26944 30832
1872 35584 35712 27424 26944 30832
1873 35840 37056 27424 26944 30832
1874 33728 33216 27424 26944 30832
1875 39680 40704 27424 26944 30832
1876 34560 34432 27424 26944 30832
1877 36224 37312 27424 26944 30832
1878 38656 39744 27424 26944 30832
1879 36928 37312 27424 26944 30832
1880 34048 34496 27424 26944 30832
1881 31680 33216 27424 26944 30832
1882 33280 34496 27424 26944 30832
1883 39424 39872 27424 26944 30832
1884 37888 38208 27424 26944 30832
1885 45632 38720 27424 26944 30832
1886 49856 32896 27424 26944 30832
1887 56768 35968 27424 26944 30832
1888 47232 38336 27424 26944 30832
1889 35840 37120 27424 26944 30832
1890 28096 36736 27328 27040 30688
1891 32064 36352 27328 27040 30688
1892 31424 31744 27328 27040 30688
1893 38144 35200 27328 27040 30688
1894 38400 37952 27328 27040 30688
1895 39616 38976 27328 27040 30688
1896 39616 38976 27328 27040 30688
1897 37440 37504 27328 27040 30688
1898 38336 37120 27328 27040 30688
1899 35904 35264 27328 27040 30688
1900 38016 36288 27296 27088 30704
1901 34624 33024 27296 27088 30704
1902 35328 33856 27296 27088 30704
1903 38080 35328 27296 27088 30704
1904 36800 34688 27296 27088 30704
1905 36288 33152 27296 27088 30704
1906 42560 38784 27296 27088 30704
1907 41152 38208 27296 27088 30704
1908 42688 37312 27296 27088 30704
1909 38336 34304 27296 27088 30704
1910 41280 34688 27232 27200 30688
1911 38400 32512 27232 27200 30688
1912 40512 33728 27232 27200 30688
1913 43712 36416 27232 27200 30688
1914 42816 35200 27232 27200 30688
1915 41280 33920 27232 27200 30688
1916 42624 35712 27232 27200 30688
1917 44800 37888 27232 27200 30688
1918 44544 39168 27232 27200 30688
1919 38848 34496 27232 27200 30688
1920 38080 34816 27360 27136 30656
1921 36992 34304 27360 27136 30656
1922 37312 36224 27360 27136 30656
1923 34560 34688 27360 27136 30656
1924 34048 34496 27360 27136 30656
1925 37632 37056 27360 27136 30656
1926 34304 35584 27360 27136 30656
1927 33024 34048 27360 27136 30656
1928 35008 36224 27360 27136 30656
1929 33728 34688 27360 27136 30656
1930 35456 35584 27360 27136 30656
1931 35712 36544 27360 27136 30656
1932 33472 33728 27360 27136 30656
1933 33728 35072 27360 27136 30656
1934 33920 34176 27360 27136 30656
1935 35776 35840 27360 27136 30656
1936 35008 34560 27360 27136 30656
1937 34176 34368 27360 27136 30656
1938 38848 39040 27360 27136 30656
1939 35584 35136 27360 27136 30656
1940 37824 36672 27280 27200 30656
1941 34816 35072 27280 27200 30656
1942 32576 32384 27280 27200 30656
1943 36032 35712 27280 27200 30656
1944 32832 32320 27280 27200 30656
1945 34112 34688 27280 27200 30656
1946 35200 35712 27280 27200 30656
1947 36864 38080 27280 27200 30656
1948 33856 36224 27280 27200 30656
1949 38912 40576 27280 27200 30656
1950 35712 38208 27280 27152 30688
1951 34176 37632 27280 27152 30688
1952 31808 34624 27280 27152 30688
1953 35072 37184 27280 27152 30688
1954 38208 40192 27280 27152 30688
1955 34880 36608 27280 27152 30688
1956 34560 37504 27280 27152 30688
1957 36032 38464 27280 27152 30688
1958 33664 37312 27280 27152 30688
1959 33088 36160 27280 27152 30688
1960 35968 38656 27264 27232 30592
1961 32128 33280 27264 27232 30592
1962 34752 36480 27264 27232 30592
1963 41920 38464 27264 27232 30592
1964 48960 35136 27264 27232 30592
1965 57536 38272 27264 27232 30592
1966 47424 35456 27264 27232 30592
1967 27200 31296 27264 27232 30592
1968 28160 38592 27264 27232 30592
1969 31168 38464 27264 27232 30592
1970 31360 31424 27232 27232 30576
1971 40896 41024 27232 27232 30576
1972 37312 37056 27232 27232 30576
1973 34944 36352 27232 27232 30576
1974 36992 36544 27232 27232 30576
1975 34496 35584 27232 27232 30576
1976 36288 36800 27232 27232 30576
1977 35520 36288 27232 27232 30576
1978 33856 33984 27232 27232 30576
1979 40704 40192 27232 27232 30576
1980 37632 37632 27232 27232 30576
1981 33984 33408 27232 27232 30576
1982 39296 38080 27232 27232 30576
1983 41216 39616 27232 27232 30576
1984 40064 37888 27232 27232 30576
1985 37248 34752 27232 27232 30576
1986 37440 34112 27232 27232 30576
1987 40192 36864 27232 27232 30576
1988 40896 37312 27232 27232 30576
1989 43456 38016 27232 27232 30576
1990 43392 38400 27232 27232 30624
1991 39680 33216 27232 27232 30624
1992 46144 40768 27232 27232 30624
1993 43328 37056 27232 27232 30624
1994 41856 37184 27232 27232 30624
1995 37888 33600 27232 27232 30624
1996 41088 38336 27232 27232 30624
1997 40384 37760 27232 27232 30624
1998 36928 35712 27232 27232 30624
1999 39936 38976 27232 27232 30624
2000 38144 37568 27328 27200 30528
2001 34688 35200 27328 27200 30528
2002 37248 38272 27328 27200 30528
2003 36224 37312 27328 27200 30528
2004 32256 33984 27328 27200 30528
2005 30464 31808 27328 27200 30528
2006 31232 33792 27328 27200 30528
2007 37632 39936 27328 27200 30528
2008 36416 37056 27328 27200 30528
2009 33792 35840 27328 27200 30528
2010 29248 30464 27248 27216 30560
2011 39232 40704 27248 27216 30560
2012 38528 38976 27248 27216 30560
2013 35008 35776 27248 27216 30560
2014 33472 34752 27248 27216 30560
2015 36288 36864 27248 27216 30560
2016 33024 34176 27248 27216 30560
2017 34496 35584 27248 27216 30560
2018 34304 34752 27248 27216 30560
2019 36672 37760 27248 27216 30560
2020 37248 38144 27216 27200 30592
2021 34688 34688 27216 27200 30592
2022 36608 37568 27216 27200 30592
2023 36992 37376 27216 27200 30592
2024 35904 36480 27216 27200 30592
2025 34688 35008 27216 27200 30592
2026 37312 38144 27216 27200 30592
2027 35328 34624 27216 27200 30592
2028 32384 33472 27216 27200 30592
2029 35456 35200 27216 27200 30592
2030 35136 35456 27216 27200 30592
2031 33920 35328 27216 27200 30592
2032 35136 35264 27216 27200 30592
2033 35264 35456 27216 27200 30592
2034 40000 40000 27216 27200 30592
2035 37504 38016 27216 27200 30592
2036 35136 36608 27216 27200 30592
2037 34880 36992 27216 27200 30592
2038 32704 34112 27216 27200 30592
2039 31616 32768 27216 27200 30592
2040 34048 35200 27200 27264 30560
2041 36544 37504 27200 27264 30560
2042 39744 37376 27200 27264 30560
2043 48064 39232 27200 27264 30560
2044 55104 34432 27200 27264 30560
2045 56256 35840 27200 27264 30560
2046 33472 33088 27200 27264 30560
2047 26560 35072 27200 27264 30560
2048 28992 37440 27200 27264 30560
2049 37248 38272 27200 27264 30560
2050 34368 32384 27216 27264 30560
2051 34496 33344 27216 27264 30560
2052 33984 34176 27216 27264 30560
2053 40704 40384 27216 27264 30560
2054 35904 35584 27216 27264 30560
2055 38208 37504 27216 27264 30560
2056 35200 34560 27216 27264 30560
2057 38272 37440 27216 27264 30560
2058 38912 38272 27216 27264 30560
2059 34880 33344 27216 27264 30560
2060 36160 35584 27232 27280 30544
2061 35392 33600 27232 27280 30544
2062 36992 35072 27232 27280 30544
2063 40704 37312 27232 27280 30544
2064 39552 36928 27232 27280 30544
2065 40192 36672 27232 27280 30544
2066 42048 37952 27232 27280 30544
2067 42688 37696 27232 27280 30544
2068 38464 32960 27232 27280 30544
2069 39936 33920 27232 27280 30544
2070 42368 36096 27136 27264 30592
2071 43008 35712 27136 27264 30592
2072 41600 35008 27136 27264 30592
2073 41088 35392 27136 27264 30592
2074 45376 39552 27136 27264 30592
2075 41088 37632 27136 27264 30592
2076 39872 36416 27136 27264 30592
2077 39424 38400 27136 27264 30592
2078 35968 35136 27136 27264 30592
2079 33408 35136 27136 27264 30592
2080 36160 37824 27200 27216 30608
2081 31680 33856 27200 27216 30608
2082 31104 34880 27200 27216 30608
2083 37888 40320 27200 27216 30608
2084 34240 36800 27200 27216 30608
2085 32448 35776 27200 27216 30608
2086 34112 37440 27200 27216 30608
2087 34368 36800 27200 27216 30608
2088 33856 37056 27200 27216 30608
2089 35136 37440 27200 27216 30608
2090 31744 35264 27200 27216 30608
2091 33664 35136 27200 27216 30608
2092 32960 35776 27200 27216 30608
2093 32768 34368 27200 27216 30608
2094 33216 35968 27200 27216 30608
2095 33536 35200 27200 27216 30608
2096 36224 38208 27200 27216 30608
2097 33728 35520 27200 27216 30608
2098 36096 37120 27200 27216 30608
2099 35904 38208 27200 27216 30608
2100 34688 36864 27184 27232 30640
2101 33536 35392 27184 27232 30640
2102 34624 35904 27184 27232 30640
2103 31552 32960 27184 27232 30640
2104 34688 35648 27184 27232 30640
2105 35776 37120 27184 27232 30640
2106 31616 32576 27184 27232 30640
2107 32192 34048 27184 27232 30640
2108 37312 37376 27184 27232 30640
2109 36224 37504 27184 27232 30640
2110 36928 36480 27168 27232 30688
2111 35840 37056 27168 27232 30688
2112 33536 33792 27168 27232 30688
2113 28288 29824 27168 27232 30688
2114 36288 36224 27168 27232 30688
2115 33152 33664 27168 27232 30688
2116 35520 36544 27168 27232 30688
2117 37760 38272 27168 27232 30688
2118 35136 36928 27168 27232 30688
2119 35712 37248 27168 27232 30688
2120 34432 35648 27168 27200 30688
2121 33600 34944 27168 27200 30688
2122 32128 33216 27168 27200 30688
2123 30208 30144 27168 27200 30688
2124 41600 35968 27168 27200 30688
2125 52672 34560 27168 27200 30688
2126 57920 37056 27168 27200 30688
2127 45120 36736 27168 27200 30688
2128 29632 35392 27168 27200 30688
2129 21824 33152 27168 27200 30688
2130 31360 37248 27168 27200 30688
2131 40320 38976 27168 27200 30688
2132 38272 36160 27168 27200 30688
2133 37376 35968 27168 27200 30688
2134 31168 31744 27168 27200 30688
2135 29888 30720 27168 27200 30688
2136 38784 39744 27168 27200 30688
2137 37504 37824 27168 27200 30688
2138 37376 38080 27168 27200 30688
2139 35456 35968 27168 27200 30688
2140 33792 33536 27200 27200 30640
2141 36416 36352 27200 27200 30640
2142 34432 33536 27200 27200 30640
2143 37760 38208 27200 27200 30640
2144 39360 37440 27200 27200 30640
2145 38464 36864 27200 27200 30640
2146 38464 35584 27200 27200 30640
2147 36032 33344 27200 27200 30640
2148 39616 35904 27200 27200 30640
2149 39104 34816 27200 27200 30640
2150 40768 35520 27264 27264 30496
2151 39680 33280 27264 27264 30496
2152 42560 36480 27264 27264 30496
2153 41344 35648 27264 27264 30496
2154 41984 35520 27264 27264 30496
2155 43904 38720 27264 27264 30496
2156 42112 37376 27264 27264 30496
2157 39616 35136 27264 27264 30496
2158 36608 34944 27264 27264 30496
2159 34368 33216 27264 27264 30496
2160 32960 32640 27232 27232 30544
2161 36992 36736 27232 27232 30544
2162 31616 32384 27232 27232 30544
2163 33600 35136 27232 27232 30544
2164 36416 38528 27232 27232 30544
2165 34112 37248 27232 27232 30544
2166 33856 36160 27232 27232 30544
2167 32960 35712 27232 27232 30544
2168 33280 35968 27232 27232 30544
2169 33088 35840 27232 27232 30544
2170 32192 34432 27200 27248 30560
2171 30592 32832 27200 27248 30560
2172 26816 27904 27200 27248 30560
2173 33088 34816 27200 27248 30560
2174 37504 38720 27200 27248 30560
2175 37952 39616 27200 27248 30560
2176 35712 36800 27200 27248 30560
2177 34240 36544 27200 27248 30560
2178 34112 35328 27200 27248 30560
2179 33344 35200 27200 27248 30560
2180 31296 32512 27104 27168 30560
2181 29888 30912 27104 27168 30560
2182 25600 27712 27104 27168 30560
2183 37312 38208 27104 27168 30560
2184 34112 34752 27104 27168 30560
2185 35584 36672 27104 27168 30560
2186 33472 34624 27104 27168 30560
2187 34240 34816 27104 27168 30560
2188 34368 35648 27104 27168 30560
2189 29824 31616 27104 27168 30560
2190 22720 24128 27104 27168 30560
2191 32832 33856 27104 27168 30560
2192 35072 36096 27104 27168 30560
2193 33280 32896 27104 27168 30560
2194 30912 32960 27104 27168 30560
2195 37952 38272 27104 27168 30560
2196 37632 38016 27104 27168 30560
2197 34112 35392 27104 27168 30560
2198 33664 34944 27104 27168 30560
2199 31616 32704 27104 27168 30560
2200 25984 26688 27168 27216 30576
2201 27072 29376 27168 27216 30576
2202 36544 37632 27168 27216 30576
2203 34688 36288 27168 27216 30576
2204 33728 35072 27168 27216 30576
2205 32640 33344 27168 27216 30576
2206 34880 34496 27168 27216 30576
2207 41344 34624 27168 27216 30576
2208 52160 33920 27168 27216 30576
2209 52928 32192 27168 27216 30576
2210 31360 26560 27200 27232 30560
2211 27008 33408 27200 27232 30560
2212 21120 32512 27200 27232 30560
2213 30720 33728 27200 27232 30560
2214 32704 31808 27200 27232 30560
2215 36672 34816 27200 27232 30560
2216 34240 34752 27200 27232 30560
2217 33792 34304 27200 27232 30560
2218 32128 32704 27200 27232 30560
2219 32896 33152 27200 27232 30560
2220 30656 32128 27360 27264 30624
2221 27968 30720 27360 27264 30624
2222 23488 29760 27360 27264 30624
2223 35520 41024 27360 27264 30624
2224 36672 46336 27360 27264 30624
2225 34496 45824 27360 27264 30624
2226 33984 47360 27360 27264 30624
2227 33984 44608 27360 27264 30624
2228 31232 45056 27360 27264 30624
2229 32960 42368 27360 27264 30624
2230 30016 38592 27232 27152 30656
2231 25792 35136 27232 27152 30656
2232 35648 42880 27232 27152 30656
2233 35840 41920 27232 27152 30656
2234 36096 40896 27232 27152 30656
2235 34176 37568 27232 27152 30656
2236 33152 34816 27232 27152 30656
2237 31488 32704 27232 27152 30656
2238 29184 28928 27232 27152 30656
2239 26944 28928 27232 27152 30656
2240 24000 25408 27232 27152 30656
2241 25472 27776 27232 27152 30656
2242 27328 29824 27232 27152 30656
2243 23040 26560 27232 27152 30656
2244 19904 23232 27232 27152 30656
2245 17536 20224 27232 27152 30656
2246 15296 18048 27232 27152 30656
2247 11904 15488 27232 27152 30656
2248 10624 13568 27232 27152 30656
2249 10560 12544 27232 27152 30656
2250 11520 14464 27216 27152 30704
2251 11072 12736 27216 27152 30704
2252 10816 13632 27216 27152 30704
2253  9408 12288 27216 27152 30704
2254  6976 11264 27216 27152 30704
2255  7168 13696 27216 27152 30704
2256  7872 17344 27216 27152 30704
2257  7424 17408 27216 27152 30704
2258  6656 18176 27216 27152 30704
2259  7552 18432 27216 27152 30704
2260  7104 20416 27328 27232 30688
2261  7808 18176 27328 27232 30688
2262  8320 15936 27328 27232 30688
2263  9472 16640 27328 27232 30688
2264  8128 15360 27328 27232 30688
2265  8768 13440 27328 27232 30688
2266  9408 12416 27328 27232 30688
2267  8960 12864 27328 27232 30688
2268 11072 12800 27328 27232 30688
2269  9728 12544 27328 27232 30688
2270 10752 11264 27456 27520 30480
2271 10112 11136 27456 27520 30480
2272 10240 11840 27456 27520 30480
2273 10368 11840 27456 27520 30480
2274 11584 11968 27456 27520 30480
2275 11328 11584 27456 27520 30480
2276 11712 10432 27456 27520 30480
2277 11584 10496 27456 27520 30480
2278 12992 10496 27456 27520 30480
2279 14336 11904 27456 27520 30480
2280 13824 12416 27600 27232 30656
2281 15104 11392 27600 27232 30656
2282 13568 14912 27600 27232 30656
2283 13120 20032 27600 27232 30656
2284 12864 20864 27600 27232 30656
2285 13504 22016 27600 27232 30656
2286 13632 25536 27600 27232 30656
2287 14592 27392 27600 27232 30656
2288 14848 25024 27600 27232 30656
2289 16448 25088 27600 27232 30656
2290 19456 22656 27600 27232 30656
2291 29376 23488 27600 27232 30656
2292 39296 22336 27600 27232 30656
2293 36800 22336 27600 27232 30656
2294 16832 22208 27600 27232 30656
2295 10048 20608 27600 27232 30656
2296  9408 19136 27600 27232 30656
2297 18112 19200 27600 27232 30656
2298 21632 18240 27600 27232 30656
2299 19968 17152 27600 27232 30656
2300 19008 17088 28256 27328 29184
2301 17920 17024 28256 27328 29184
2302 19328 19008 28256 27328 29184
2303 22528 20544 28256 27328 29184
2304 22656 19904 28256 27328 29184
2305 21952 20864 28256 27328 29184
2306 22016 20480 28256 27328 29184
2307 21824 21568 28256 27328 29184
2308 23296 22976 28256 27328 29184
2309 22144 26048 28256 27328 29184
2310 23040 28416 28464 27184 29488
2311 22720 30400 28464 27184 29488
2312 24512 32192 28464 27184 29488
2313 24256 32768 28464 27184 29488
2314 26496 34432 28464 27184 29488
2315 27008 33920 28464 27184 29488
2316 26944 32256 28464 27184 29488
2317 27584 31168 28464 27184 29488
2318 27392 30208 28464 27184 29488
2319 28544 30848 28464 27184 29488
2320 28928 29120 28592 26864 29504
2321 29504 29184 28592 26864 29504
2322 27136 28416 28592 26864 29504
2323 28736 26368 28592 26864 29504
2324 27648 25728 28592 26864 29504
2325 25152 24576 28592 26864 29504
2326 24256 23168 28592 26864 29504
2327 24192 23488 28592 26864 29504
2328 22080 24192 28592 26864 29504
2329 22528 23488 28592 26864 29504
2330 21376 22656 28576 27648 29920
2331 21376 23424 28576 27648 29920
2332 22720 23808 28576 27648 29920
2333 22976 23808 28576 27648 29920
2334 22656 23808 28576 27648 29920
2335 22784 23936 28576 27648 29920
2336 23488 23936 28576 27648 29920
2337 22656 25856 28576 27648 29920
2338 23296 29184 28576 27648 29920
2339 23552 31936 28576 27648 29920
2340 23104 32512 28480 27088 29792
2341 23680 35648 28480 27088 29792
2342 24320 34944 28480 27088 29792
2343 24128 35392 28480 27088 29792
2344 24512 36224 28480 27088 29792
2345 23808 34432 28480 27088 29792
2346 23744 34688 28480 27088 29792
2347 24640 33856 28480 27088 29792
2348 24576 33280 28480 27088 29792
2349 26624 31488 28480 27088 29792
2350 25024 30528 28480 27088 29792
2351 25984 27840 28480 27088 29792
2352 25344 27584 28480 27088 29792
2353 25408 28416 28480 27088 29792
2354 24960 26368 28480 27088 29792
2355 25984 26816 28480 27088 29792
2356 25600 26688 28480 27088 29792
2357 27008 26304 28480 27088 29792
2358 26176 25920 28480 27088 29792
2359 27456 25664 28480 27088 29792
2360 26880 24704 28496 26880 29728
2361 27712 24064 28496 26880 29728
2362 27264 24576 28496 26880 29728
2363 26880 24320 28496 26880 29728
2364 26816 23232 28496 26880 29728
2365 27584 25472 28496 26880 29728
2366 27392 24512 28496 26880 29728
2367 27264 25664 28496 26880 29728
2368 27072 25088 28496 26880 29728
2369 24896 25280 28496 26880 29728
2370 27008 24064 28320 26432 29376
2371 27520 23936 28320 26432 29376
2372 27072 23808 28320 26432 29376
2373 28224 25088 28320 26432 29376
2374 34816 24000 28320 26432 29376
2375 45248 25024 28320 26432 29376
2376 49152 24768 28320 26432 29376
2377 34816 25664 28320 26432 29376
2378 25088 25344 28320 26432 29376
2379 18304 25856 28320 26432 29376
2380 24512 27392 28384 26512 29424
2381 29824 28096 28384 26512 29424
2382 30208 28672 28384 26512 29424
2383 29248 32768 28384 26512 29424
2384 28864 34176 28384 26512 29424
2385 28800 36736 28384 26512 29424
2386 29312 39360 28384 26512 29424
2387 29376 39744 28384 26512 29424
2388 29376 40128 28384 26512 29424
2389 30272 39552 28384 26512 29424
2390 29056 41024 28384 26512 29424
2391 30720 38592 28384 26512 29424
2392 29824 39680 28384 26512 29424
2393 31680 38336 28384 26512 29424
2394 31360 37184 28384 26512 29424
2395 32576 35456 28384 26512 29424
2396 31872 35968 28384 26512 29424
2397 33536 34624 28384 26512 29424
2398 33472 33856 28384 26512 29424
2399 34432 32960 28384 26512 29424
2400 35776 34048 28496 26448 29440
2401 35648 32960 28496 26448 29440
2402 35904 32000 28496 26448 29440
2403 36352 30656 28496 26448 29440
2404 35904 30208 28496 26448 29440
2405 36288 30080 28496 26448 29440
2406 35776 29056 28496 26448 29440
2407 34688 29312 28496 26448 29440
2408 33728 29312 28496 26448 29440
2409 32320 29312 28496 26448 29440
2410 31104 29888 28384 26880 29472
2411 31040 29056 28384 26880 29472
2412 30592 27968 28384 26880 29472
2413 29760 28352 28384 26880 29472
2414 29248 28160 28384 26880 29472
2415 29056 27136 28384 26880 29472
2416 28224 28288 28384 26880 29472
2417 28224 27264 28384 26880 29472
2418 27968 27456 28384 26880 29472
2419 28800 28928 28384 26880 29472
2420 29056 28800 28512 26800 29440
2421 28992 29184 28512 26800 29440
2422 29504 29120 28512 26800 29440
2423 28928 28096 28512 26800 29440
2424 29632 29824 28512 26800 29440
2425 29632 27648 28512 26800 29440
2426 28736 29696 28512 26800 29440
2427 29504 30976 28512 26800 29440
2428 28672 33920 28512 26800 29440
2429 29312 36352 28512 26800 29440
2430 28288 38336 28560 26752 29408
2431 28416 40064 28560 26752 29408
2432 29696 42880 28560 26752 29408
2433 29760 41728 28560 26752 29408
2434 30016 41152 28560 26752 29408
2435 28480 40768 28560 26752 29408
2436 29248 39104 28560 26752 29408
2437 28928 39680 28560 26752 29408
2438 29440 39168 28560 26752 29408
2439 29952 38016 28560 26752 29408
2440 29376 36608 28672 26688 29472
2441 29696 36160 28672 26688 29472
2442 29312 35456 28672 26688 29472
2443 28800 34688 28672 26688 29472
2444 30592 34304 28672 26688 29472
2445 30784 33088 28672 26688 29472
2446 30784 31872 28672 26688 29472
2447 29952 30784 28672 26688 29472
2448 30016 30912 28672 26688 29472
2449 28864 30144 28672 26688 29472
2450 28800 29696 28672 26688 29472
2451 29312 29888 28672 26688 29472
2452 29120 29888 28672 26688 29472
2453 29952 29440 28672 26688 29472
2454 29824 28736 28672 26688 29472
2455 32000 28352 28672 26688 29472
2456 38080 28480 28672 26688 29472
2457 47872 28032 28672 26688 29472
2458 49984 27584 28672 26688 29472
2459 35968 28352 28672 26688 29472
2460 27328 29120 28656 26704 29488
2461 20288 26752 28656 26704 29488
2462 25664 28160 28656 26704 29488
2463 31424 28288 28656 26704 29488
2464 31360 29184 28656 26704 29488
2465 32192 27648 28656 26704 29488
2466 30784 27264 28656 26704 29488
2467 31040 27712 28656 26704 29488
2468 31360 27712 28656 26704 29488
2469 31616 28800 28656 26704 29488
2470 31424 27712 28592 26720 29456
2471 31488 28480 28592 26720 29456
2472 31168 28352 28592 26720 29456
2473 31744 28800 28592 26720 29456
2474 32256 27776 28592 26720 29456
2475 32640 29504 28592 26720 29456
2476 33152 28672 28592 26720 29456
2477 33728 29376 28592 26720 29456
2478 34496 28096 28592 26720 29456
2479 34368 27968 28592 26720 29456
2480 34816 29312 28512 26560 29440
2481 34688 28608 28512 26560 29440
2482 35584 28224 28512 26560 29440
2483 36096 29760 28512 26560 29440
2484 37440 31040 28512 26560 29440
2485 38208 30464 28512 26560 29440
2486 36544 31424 28512 26560 29440
2487 36864 30080 28512 26560 29440
2488 36608 29376 28512 26560 29440
2489 35520 29952 28512 26560 29440
2490 33600 30976 28512 26560 29440
2491 32384 29504 28512 26560 29440
2492 30720 30464 28512 26560 29440
2493 30400 29760 28512 26560 29440
2494 30784 32128 28512 26560 29440
2495 30912 31872 28512 26560 29440
2496 29440 30976 28512 26560 29440
2497 30208 30528 28512 26560 29440
2498 30272 29760 28512 26560 29440
2499 28800 29312 28512 26560 29440
2500 29632 30656 28560 26640 29440
2501 28864 29888 28560 26640 29440
2502 29312 29952 28560 26640 29440
2503 28992 29696 28560 26640 29440
2504 29760 30912 28560 26640 29440
2505 29888 31552 28560 26640 29440
2506 30912 31296 28560 26640 29440
2507 30336 31232 28560 26640 29440
2508 30528 29568 28560 26640 29440
2509 29952 30144 28560 26640 29440
2510 30912 29632 28608 26640 29424
2511 29888 31168 28608 26640 29424
2512 29696 30144 28608 26640 29424
2513 29568 30144 28608 26640 29424
2514 30656 31232 28608 26640 29424
2515 30464 31744 28608 26640 29424
2516 30144 32192 28608 26640 29424
2517 31104 30784 28608 26640 29424
2518 30528 32064 28608 26640 29424
2519 30336 30272 28608 26640 29424
2520 30016 30208 28576 26752 29408
2521 29824 32000 28576 26752 29408
2522 28672 30912 28576 26752 29408
2523 29184 31168 28576 26752 29408
2524 29376 32000 28576 26752 29408
2525 30784 33024 28576 26752 29408
2526 29760 33280 28576 26752 29408
2527 31232 31552 28576 26752 29408
2528 28736 32000 28576 26752 29408
2529 30528 31488 28576 26752 29408
2530 30592 31360 28560 26672 29408
2531 29888 31872 28560 26672 29408
2532 29120 31360 28560 26672 29408
2533 28672 30784 28560 26672 29408
2534 29248 31808 28560 26672 29408
2535 28352 32320 28560 26672 29408
2536 30016 31872 28560 26672 29408
2537 29632 31680 28560 26672 29408
2538 29184 31616 28560 26672 29408
2539 32256 31104 28560 26672 29408
2540 40000 31936 28528 26656 29376
2541 49024 31808 28528 26656 29376
2542 49472 30848 28528 26656 29376
2543 32448 31296 28528 26656 29376
2544 26816 31616 28528 26656 29376
2545 19904 31424 28528 26656 29376
2546 26560 31040 28528 26656 29376
2547 31488 32448 28528 26656 29376
2548 32000 32512 28528 26656 29376
2549 33152 32448 28528 26656 29376
2550 31552 30976 28528 26656 29376
2551 32512 32064 28528 26656 29376
2552 31936 31168 28528 26656 29376
2553 32384 32960 28528 26656 29376
2554 32320 32384 28528 26656 29376
2555 32064 32192 28528 26656 29376
2556 33472 31616 28528 26656 29376
2557 32768 32000 28528 26656 29376
2558 33280 32448 28528 26656 29376
2559 33792 32512 28528 26656 29376
2560 34880 32448 28608 26720 29440
2561 34304 31616 28608 26720 29440
2562 35648 32192 28608 26720 29440
2563 36032 32128 28608 26720 29440
2564 36032 32256 28608 26720 29440
2565 37248 31616 28608 26720 29440
2566 36928 31872 28608 26720 29440
2567 36544 31936 28608 26720 29440
2568 38912 32896 28608 26720 29440
2569 38656 33664 28608 26720 29440
2570 38528 33280 28592 26640 29392
2571 38208 32768 28592 26640 29392
2572 37824 31936 28592 26640 29392
2573 35136 32256 28592 26640 29392
2574 34624 31744 28592 26640 29392
2575 33600 32512 28592 26640 29392
2576 32320 31488 28592 26640 29392
2577 31040 33216 28592 26640 29392
2578 32192 33856 28592 26640 29392
2579 31424 33344 28592 26640 29392
2580 30656 32512 28640 26672 29440
2581 30080 32832 28640 26672 29440
2582 30656 32512 28640 26672 29440
2583 30144 32832 28640 26672 29440
2584 30144 32576 28640 26672 29440
2585 30208 32896 28640 26672 29440
2586 30016 32896 28640 26672 29440
2587 30144 32896 28640 26672 29440
2588 30144 32512 28640 26672 29440
2589 29888 33472 28640 26672 29440
2590 31104 33088 28512 26720 29376
2591 31168 32000 28512 26720 29376
2592 31296 33600 28512 26720 29376
2593 31680 32704 28512 26720 29376
2594 30720 31936 28512 26720 29376
2595 31168 31936 28512 26720 29376
2596 30336 32512 28512 26720 29376
2597 30912 32000 28512 26720 29376
2598 30272 31744 28512 26720 29376
2599 30464 32704 28512 26720 29376
2600 31360 34816 28512 26672 29360
2601 30848 32960 28512 26672 29360
2602 31744 32768 28512 26672 29360
2603 30912 33536 28512 26672 29360
2604 30720 32384 28512 26672 29360
2605 31360 32512 28512 26672 29360
2606 30976 32384 28512 26672 29360
2607 30400 33728 28512 26672 29360
2608 30976 31680 28512 26672 29360
2609 31936 33664 28512 26672 29360
2610 31296 33152 28512 26672 29360
2611 30592 33472 28512 26672 29360
2612 31936 32640 28512 26672 29360
2613 32320 32192 28512 26672 29360
2614 31680 32128 28512 26672 29360
2615 31808 32512 28512 26672 29360
2616 31296 32384 28512 26672 29360
2617 31360 31872 28512 26672 29360
2618 30656 31872 28512 26672 29360
2619 31232 32512 28512 26672 29360
2620 30400 34048 28544 26624 29360
2621 30784 32960 28544 26624 29360
2622 30912 33344 28544 26624 29360
2623 30656 32448 28544 26624 29360
2624 31040 32256 28544 26624 29360
2625 32768 32384 28544 26624 29360
2626 38272 32320 28544 26624 29360
2627 48704 32384 28544 26624 29360
2628 51456 32576 28544 26624 29360
2629 40256 33216 28544 26624 29360
2630 27456 32960 28576 26688 29408
2631 21184 33984 28576 26688 29408
2632 26624 33408 28576 26688 29408
2633 33280 32896 28576 26688 29408
2634 34624 32896 28576 26688 29408
2635 32640 32192 28576 26688 29408
2636 32640 32512 28576 26688 29408
2637 32320 32896 28576 26688 29408
2638 32832 32768 28576 26688 29408
2639 31872 32768 28576 26688 29408
2640 33024 32448 28480 26576 29296
2641 32576 32768 28480 26576 29296
2642 33088 33088 28480 26576 29296
2643 33024 33856 28480 26576 29296
2644 34880 30656 28480 26576 29296
2645 33856 33280 28480 26576 29296
2646 34496 32448 28480 26576 29296
2647 35200 32960 28480 26576 29296
2648 35008 31488 28480 26576 29296
2649 35968 32384 28480 26576 29296
2650 36480 32576 28480 26576 29296
2651 37568 31616 28480 26576 29296
2652 37376 31936 28480 26576 29296
2653 38784 31104 28480 26576 29296
2654 37440 31808 28480 26576 29296
2655 38464 32896 28480 26576 29296
2656 39104 30592 28480 26576 29296
2657 37440 30656 28480 26576 29296
2658 36416 30336 28480 26576 29296
2659 36224 30976 28480 26576 29296
2660 34304 31168 28544 26416 29680
2661 33600 30208 28544 26416 29680
2662 31616 31040 28544 26416 29680
2663 31424 31168 28544 26416 29680
2664 31872 30080 28544 26416 29680
2665 30464 29504 28544 26416 29680
2666 29568 27584 28544 26416 29680
2667 28800 29376 28544 26416 29680
2668 28608 29376 28544 26416 29680
2669 28352 28992 28544 26416 29680
2670 28736 29376 25792 27040 26720
2671 28992 29888 25792 27040 26720
2672 28224 29184 25792 27040 26720
2673 28544 30144 25792 27040 26720
2674 30400 28224 25792 27040 26720
2675 28864 29120 25792 27040 26720
2676 29760 29184 25792 27040 26720
2677 29184 28480 25792 27040 26720
2678 30144 28096 25792 27040 26720
2679 29440 29440 25792 27040 26720
2680 30208 29056 25808 28416 28688
2681 30656 30080 25808 28416 28688
2682 29952 29440 25808 28416 28688
2683 30592 30016 25808 28416 28688
2684 31360 29248 25808 28416 28688
2685 30464 29376 25808 28416 28688
2686 30272 29568 25808 28416 28688
2687 30976 29248 25808 28416 28688
2688 29888 30080 25808 28416 28688
2689 30528 30400 25808 28416 28688
2690 30144 30144 25632 29648 29424
2691 29824 31552 25632 29648 29424
2692 29568 31168 25632 29648 29424
2693 30592 30528 25632 29648 29424
2694 28992 31296 25632 29648 29424
2695 28992 30528 25632 29648 29424
2696 29888 31104 25632 29648 29424
2697 30144 31488 25632 29648 29424
2698 29504 30720 25632 29648 29424
2699 29568 30208 25632 29648 29424
2700 29632 31040 30624 29344 30880
2701 29184 31680 30624 29344 30880
2702 29568 32000 30624 29344 30880
2703 29696 31808 30624 29344 30880
2704 30656 31616 30624 29344 30880
2705 30400 31232 30624 29344 30880
2706 29568 31232 30624 29344 30880
2707 29632 31424 30624 29344 30880
2708 29824 30592 30624 29344 30880
2709 28800 31040 30624 29344 30880
2710 29504 32384 30624 29344 30880
2711 29312 32832 30624 29344 30880
2712 29824 32128 30624 29344 30880
2713 31040 32512 30624 29344 30880
2714 37696 32960 30624 29344 30880
2715 48640 32960 30624 29344 30880
2716 51776 33536 30624 29344 30880
2717 37824 32960 30624 29344 30880
2718 26176 34048 30624 29344 30880
2719 20160 33216 30624 29344 30880
2720 25472 33856 30160 23488 31488
2721 32256 33152 30160 23488 31488
2722 33984 33472 30160 23488 31488
2723 32832 32960 30160 23488 31488
2724 32256 33664 30160 23488 31488
2725 34368 33280 30160 23488 31488
2726 33344 33600 30160 23488 31488
2727 33984 32704 30160 23488 31488
2728 33344 33984 30160 23488 31488
2729 34304 35136 30160 23488 31488
2730 33856 35328 30944 24032 32176
2731 34048 35008 30944 24032 32176
2732 34368 35008 30944 24032 32176
2733 34880 34688 30944 24032 32176
2734 35072 35456 30944 24032 32176
2735 36160 34624 30944 24032 32176
2736 36416 34816 30944 24032 32176
2737 36672 35456 30944 24032 32176
2738 37184 34240 30944 24032 32176
2739 38336 35200 30944 24032 32176
2740 39488 35712 30784 20512 32960
2741 38976 35264 30784 20512 32960
2742 39680 36032 30784 20512 32960
2743 39616 37632 30784 20512 32960
2744 40960 38208 30784 20512 32960
2745 43072 38144 30784 20512 32960
2746 41856 39360 30784 20512 32960
2747 40256 37696 30784 20512 32960
2748 39168 37632 30784 20512 32960
2749 37440 36544 30784 20512 32960
2750 35520 36608 30784 20512 32960
2751 33792 35008 30784 20512 32960
2752 31744 34368 30784 20512 32960
2753 34688 36800 30784 20512 32960
2754 34688 37888 30784 20512 32960
2755 34624 37952 30784 20512 32960
2756 33920 36096 30784 20512 32960
2757 33664 35264 30784 20512 32960
2758 32576 35520 30784 20512 32960
2759 33728 35136 30784 20512 32960
2760 33600 36160 31152 21840 32976
2761 33984 37504 31152 21840 32976
2762 36032 39296 31152 21840 32976
2763 38656 41152 31152 21840 32976
2764 38016 41472 31152 21840 32976
2765 38080 40128 31152 21840 32976
2766 37568 40192 31152 21840 32976
2767 36544 39744 31152 21840 32976
2768 35520 37824 31152 21840 32976
2769 34688 36608 31152 21840 32976
2770 34496 35584 31440 23056 33568
2771 34688 35456 31440 23056 33568
2772 33664 35328 31440 23056 33568
2773 32896 35072 31440 23056 33568
2774 32768 33664 31440 23056 33568
2775 32704 34048 31440 23056 33568
2776 34752 38464 31440 23056 33568
2777 36992 38848 31440 23056 33568
2778 37248 39168 31440 23056 33568
2779 36544 38336 31440 23056 33568
2780 37184 39616 31616 25248 33024
2781 35776 40448 31616 25248 33024
2782 35072 42112 31616 25248 33024
2783 34112 43392 31616 25248 33024
2784 35200 47616 31616 25248 33024
2785 39232 53376 31616 25248 33024
2786 38464 53888 31616 25248 33024
2787 37312 51968 31616 25248 33024
2788 36288 52032 31616 25248 33024
2789 36032 50560 31616 25248 33024
2790 32896 47808 31216 25024 32864
2791 29888 43264 31216 25024 32864
2792 35264 45568 31216 25024 32864
2793 36032 47680 31216 25024 32864
2794 34176 44736 31216 25024 32864
2795 35776 44928 31216 25024 32864
2796 33664 41344 31216 25024 32864
2797 32512 39168 31216 25024 32864
2798 31680 38208 31216 25024 32864
2799 31360 35904 31216 25024 32864
2800 28800 33088 30992 24416 32784
2801 25664 28224 30992 24416 32784
2802 37312 31424 30992 24416 32784
2803 54080 37056 30992 24416 32784
2804 56256 37056 30992 24416 32784
2805 38912 34432 30992 24416 32784
2806 27456 32704 30992 24416 32784
2807 20928 31488 30992 24416 32784
2808 26624 30400 30992 24416 32784
2809 31744 30208 30992 24416 32784
2810 31872 29376 30992 24416 32784
2811 31168 31040 30992 24416 32784
2812 29248 32832 30992 24416 32784
2813 28480 34688 30992 24416 32784
2814 31360 40768 30992 24416 32784
2815 34752 42688 30992 24416 32784
2816 33536 40192 30992 24416 32784
2817 31872 43648 30992 24416 32784
2818 32576 42368 30992 24416 32784
2819 33856 42688 30992 24416 32784
2820 32768 40448 32160 23712 33792
2821 29824 37440 32160 23712 33792
2822 35072 39360 32160 23712 33792
2823 37248 41472 32160 23712 33792
2824 35136 38208 32160 23712 33792
2825 39232 40256 32160 23712 33792
2826 40960 41024 32160 23712 33792
2827 41728 37184 32160 23712 33792
2828 41472 36352 32160 23712 33792
2829 42688 35904 32160 23712 33792
2830 42176 34112 31920 23120 33344
2831 42496 34048 31920 23120 33344
2832 39104 30592 31920 23120 33344
2833 35968 28288 31920 23120 33344
2834 44032 34240 31920 23120 33344
2835 39872 32000 31920 23120 33344
2836 39424 33152 31920 23120 33344
2837 36416 31872 31920 23120 33344
2838 35328 29760 31920 23120 33344
2839 33344 28032 31920 23120 33344
2840 32192 26240 31536 23888 33344
2841 28224 25664 31536 23888 33344
2842 24320 22080 31536 23888 33344
2843 31616 28288 31536 23888 33344
2844 35136 30272 31536 23888 33344
2845 31552 30208 31536 23888 33344
2846 31552 29056 31536 23888 33344
2847 30720 28288 31536 23888 33344
2848 31616 28416 31536 23888 33344
2849 30720 28864 31536 23888 33344
2850 31296 29696 31168 23744 32800
2851 31360 28736 31168 23744 32800
2852 31040 29760 31168 23744 32800
2853 29952 27648 31168 23744 32800
2854 30976 29952 31168 23744 32800
2855 33024 30464 31168 23744 32800
2856 33152 30720 31168 23744 32800
2857 32704 29184 31168 23744 32800
2858 32704 28672 31168 23744 32800
2859 31616 27136 31168 23744 32800
2860 31296 28544 31168 23744 32800
2861 30208 27200 31168 23744 32800
2862 28288 26624 31168 23744 32800
2863 27328 23488 31168 23744 32800
2864 30272 27968 31168 23744 32800
2865 32704 30976 31168 23744 32800
2866 32320 31360 31168 23744 32800
2867 31936 30144 31168 23744 32800
2868 30016 28416 31168 23744 32800
2869 30464 28864 31168 23744 32800
2870 30080 29056 31248 24224 32672
2871 30656 29504 31248 24224 32672
2872 30592 29568 31248 24224 32672
2873 29696 29632 31248 24224 32672
2874 28608 30656 31248 24224 32672
2875 30464 35968 31248 24224 32672
2876 31104 39232 31248 24224 32672
2877 30016 43072 31248 24224 32672
2878 33280 45504 31248 24224 32672
2879 31104 46592 31248 24224 32672
2880 30080 42688 31184 24000 32432
2881 28800 41984 31184 24000 32432
2882 29632 42304 31184 24000 32432
2883 31104 42176 31184 24000 32432
2884 30976 38656 31184 24000 32432
2885 31936 41728 31184 24000 32432
2886 31232 38720 31184 24000 32432
2887 32000 37056 31184 24000 32432
2888 33728 34688 31184 24000 32432
2889 39104 32064 31184 24000 32432
2890 48640 32256 30976 25088 32288
2891 53312 32704 30976 25088 32288
2892 36672 30720 30976 25088 32288
2893 21440 25792 30976 25088 32288
2894 18048 29184 30976 25088 32288
2895 34176 35904 30976 25088 32288
2896 36672 34112 30976 25088 32288
2897 36480 32192 30976 25088 32288
2898 33664 30784 30976 25088 32288
2899 34176 30144 30976 25088 32288
2900 33280 27968 30560 23856 31488
2901 30400 26624 30560 23856 31488
2902 25472 22144 30560 23856 31488
2903 27776 25920 30560 23856 31488
2904 40064 36352 30560 23856 31488
2905 40640 36224 30560 23856 31488
2906 38784 34560 30560 23856 31488
2907 35264 34752 30560 23856 31488
2908 37568 36288 30560 23856 31488
2909 36608 37568 30560 23856 31488
2910 32704 36992 30560 23856 31488
2911 25024 28416 30560 23856 31488
2912 38400 46592 30560 23856 31488
2913 39360 44672 30560 23856 31488
2914 42432 43264 30560 23856 31488
2915 46464 47232 30560 23856 31488
2916 42112 41088 30560 23856 31488
2917 41728 36800 30560 23856 31488
2918 41920 35648 30560 23856 31488
2919 39552 33152 30560 23856 31488
2920 38016 30272 31088 24256 31952
2921 40448 30400 31088 24256 31952
2922 41920 33024 31088 24256 31952
2923 35520 29184 31088 24256 31952
2924 36032 31616 31088 24256 31952
2925 42560 35968 31088 24256 31952
2926 36928 32832 31088 24256 31952
2927 31936 28416 31088 24256 31952
2928 32896 29120 31088 24256 31952
2929 34176 30592 31088 24256 31952
2930 34304 31680 31712 24640 32800
2931 34240 31168 31712 24640 32800
2932 34368 32832 31712 24640 32800
2933 34624 31744 31712 24640 32800
2934 34944 31488 31712 24640 32800
2935 32448 29440 31712 24640 32800
2936 30144 26176 31712 24640 32800
2937 24192 22976 31712 24640 32800
2938 37184 34752 31712 24640 32800
2939 37120 34048 31712 24640 32800
2940 38592 36160 31904 24432 32848
2941 35328 34368 31904 24432 32848
2942 36288 32896 31904 24432 32848
2943 35136 32448 31904 24432 32848
2944 35136 31488 31904 24432 32848
2945 29568 26432 31904 24432 32848
2946 31232 29632 31904 24432 32848
2947 33088 31296 31904 24432 32848
2948 36416 35072 31904 24432 32848
2949 39872 38208 31904 24432 32848
2950 36800 35456 31840 24608 32832
2951 36736 33984 31840 24608 32832
2952 35520 35648 31840 24608 32832
2953 35392 34048 31840 24608 32832
2954 35392 34048 31840 24608 32832
2955 32704 31744 31840 24608 32832
2956 26944 26176 31840 24608 32832
2957 40192 39040 31840 24608 32832
2958 40896 38784 31840 24608 32832
2959 35968 36544 31840 24608 32832
2960 37184 37504 31584 24640 32512
2961 37760 35648 31584 24640 32512
2962 36032 36096 31584 24640 32512
2963 36416 34560 31584 24640 32512
2964 31488 29952 31584 24640 32512
2965 24960 25024 31584 24640 32512
2966 42944 40896 31584 24640 32512
2967 38976 36864 31584 24640 32512
2968 35648 34048 31584 24640 32512
2969 36352 32640 31584 24640 32512
2970 35008 30976 31584 24640 32512
2971 35520 32448 31584 24640 32512
2972 35456 31872 31584 24640 32512
2973 36544 30528 31584 24640 32512
2974 39296 24768 31584 24640 32512
2975 52288 29632 31584 24640 32512
2976 63680 39616 31584 24640 32512
2977 41024 35648 31584 24640 32512
2978 33536 35456 31584 24640 32512
2979 27904 34496 31584 24640 32512
2980 34752 33472 31520 24368 32640
2981 38144 33472 31520 24368 32640
2982 38464 33792 31520 24368 32640
2983 34176 31488 31520 24368 32640
2984 31232 29376 31520 24368 32640
2985 30080 29056 31520 24368 32640
2986 40448 38464 31520 24368 32640
2987 40320 39360 31520 24368 32640
2988 37184 36928 31520 24368 32640
2989 38528 38976 31520 24368 32640
2990 36608 40128 31600 24016 32848
2991 37120 41984 31600 24016 32848
2992 34176 41472 31600 24016 32848
2993 35648 42176 31600 24016 32848
2994 34880 41216 31600 24016 32848
2995 34944 40576 31600 24016 32848
2996 38208 43584 31600 24016 32848
2997 43520 45632 31600 24016 32848
2998 41856 40512 31600 24016 32848
2999 41216 37952 31600 24016 32848
3000 41280 35712 31904 23936 33024
3001 42176 35648 31904 23936 33024
3002 39616 30592 31904 23936 33024
3003 37888 29760 31904 23936 33024
3004 46144 35840 31904 23936 33024
3005 43456 33856 31904 23936 33024
3006 39296 31360 31904 23936 33024
3007 35008 29184 31904 23936 33024
3008 35904 29440 31904 23936 33024
3009 37632 32512 31904 23936 33024
3010 37568 32576 31904 23936 33024
3011 36480 34176 31904 23936 33024
3012 35456 32384 31904 23936 33024
3013 33408 31552 31904 23936 33024
3014 34112 31168 31904 23936 33024
3015 33664 30016 31904 23936 33024
3016 30336 28544 31904 23936 33024
3017 32448 30656 31904 23936 33024
3018 32704 31360 31904 23936 33024
3019 31232 30400 31904 23936 33024
3020 34816 35264 31728 27376 32240
3021 37888 40000 31728 27376 32240
3022 36096 42624 31728 27376 32240
3023 32448 38784 31728 27376 32240
3024 31424 41408 31728 27376 32240
3025 40064 47296 31728 27376 32240
3026 36672 44288 31728 27376 32240
3027 36608 39744 31728 27376 32240
3028 35648 37376 31728 27376 32240
3029 37184 35200 31728 27376 32240
3030 33984 29696 31840 25520 32720
3031 40384 33408 31840 25520 32720
3032 36352 27072 31840 25520 32720
3033 43392 24320 31840 25520 32720
3034 44992 37440 31840 25520 32720
3035 38272 33984 31840 25520 32720
3036 37504 32576 31840 25520 32720
3037 37568 32896 31840 25520 32720
3038 37440 32384 31840 25520 32720
3039 37824 33536 31840 25520 32720
3040 35776 30400 29856 27808 36416
3041 31872 25984 29856 27808 36416
3042 38720 31616 29856 27808 36416
3043 44352 38336 29856 27808 36416
3044 41792 34048 29856 27808 36416
3045 42688 35648 29856 27808 36416
3046 42176 37120 29856 27808 36416
3047 41856 37440 29856 27808 36416
3048 41024 35904 29856 27808 36416
3049 36224 31680 29856 27808 36416
3050 39936 36416 31248 27600 34336
3051 45248 41344 31248 27600 34336
3052 43712 38848 31248 27600 34336
3053 44736 42496 31248 27600 34336
3054 45568 41728 31248 27600 34336
3055 47744 40512 31248 27600 34336
3056 54720 39488 31248 27600 34336
3057 61952 35712 31248 27600 34336
3058 59456 33088 31248 27600 34336
3059 50304 40320 31248 27600 34336
3060 43584 41216 31232 26720 31568
3061 36800 39040 31232 26720 31568
3062 40128 37376 31232 26720 31568
3063 45312 38912 31232 26720 31568
3064 44608 38080 31232 26720 31568
3065 38592 33216 31232 26720 31568
3066 46272 40768 31232 26720 31568
3067 46144 41088 31232 26720 31568
3068 48256 42816 31232 26720 31568
3069 46784 41472 31232 26720 31568
3070 45952 40960 31232 26720 31568
3071 46016 41600 31232 26720 31568
3072 44672 41152 31232 26720 31568
3073 45120 41920 31232 26720 31568
3074 47040 42496 31232 26720 31568
3075 44992 41024 31232 26720 31568
3076 45696 39424 31232 26720 31568
3077 48768 43520 31232 26720 31568
3078 48768 41600 31232 26720 31568
3079 48128 40128 31232 26720 31568
3080 45824 35392 32768 28640 32064
3081 55936 44160 32768 28640 32064
3082 54528 42304 32768 28640 32064
3083 53248 41152 32768 28640 32064
3084 52864 40832 32768 28640 32064
3085 53568 40192 32768 28640 32064
3086 48320 35328 32768 28640 32064
3087 49984 38784 32768 28640 32064
3088 56320 43584 32768 28640 32064
3089 58112 42688 32768 28640 32064
3090 51072 42176 32256 25504 30672
3091 46464 40640 32256 25504 30672
3092 43136 41408 32256 25504 30672
3093 46016 39744 32256 25504 30672
3094 53376 40000 32256 25504 30672
3095 49856 36928 32256 25504 30672
3096 39552 30848 32256 25504 30672
3097 42944 36288 32256 25504 30672
3098 43904 38976 32256 25504 30672
3099 48256 44736 32256 25504 30672
3100 45568 45120 32496 24960 30112
3101 40512 42816 32496 24960 30112
3102 37312 42048 32496 24960 30112
3103 35392 41728 32496 24960 30112
3104 35520 40256 32496 24960 30112
3105 38336 41472 32496 24960 30112
3106 38976 41344 32496 24960 30112
3107 40192 41216 32496 24960 30112
3108 40576 38656 32496 24960 30112
3109 37696 34624 32496 24960 30112
3110 37568 33472 32496 24960 30112
3111 44096 41472 32496 24960 30112
3112 40256 39232 32496 24960 30112
3113 41536 41664 32496 24960 30112
3114 41408 43264 32496 24960 30112
3115 40768 41216 32496 24960 30112
3116 39808 40320 32496 24960 30112
3117 39616 39040 32496 24960 30112
3118 39360 38848 32496 24960 30112
3119 35264 36736 32496 24960 30112
3120 30016 33408 32576 20160 31328
3121 33088 36800 32576 20160 31328
3122 39936 44032 32576 20160 31328
3123 43264 45504 32576 20160 31328
3124 42816 44288 32576 20160 31328
3125 48320 41088 32576 20160 31328
3126 40960 38720 32576 20160 31328
3127 39680 38272 32576 20160 31328
3128 33152 33280 32576 20160 31328
3129 37824 38528 32576 20160 31328
3130 36096 37696 30608 22608 31328
3131 41216 45824 30608 22608 31328
3132 38144 43264 30608 22608 31328
3133 35968 41920 30608 22608 31328
3134 34688 39744 30608 22608 31328
3135 34816 41408 30608 22608 31328
3136 33216 40192 30608 22608 31328
3137 38208 42752 30608 22608 31328
3138 42432 40000 30608 22608 31328
3139 53568 38144 30608 22608 31328
3140 52288 33664 30400 24016 31888
3141 39936 33664 30400 24016 31888
3142 31488 34752 30400 24016 31888
3143 29056 41024 30400 24016 31888
3144 42816 42752 30400 24016 31888
3145 48384 46848 30400 24016 31888
3146 46592 47680 30400 24016 31888
3147 41024 43328 30400 24016 31888
3148 37312 39744 30400 24016 31888
3149 34816 38016 30400 24016 31888
3150 35328 36928 32736 18688 34560
3151 36992 38016 32736 18688 34560
3152 37120 37888 32736 18688 34560
3153 38528 39808 32736 18688 34560
3154 41984 41856 32736 18688 34560
3155 43584 42368 32736 18688 34560
3156 45504 43136 32736 18688 34560
3157 41920 41344 32736 18688 34560
3158 35712 37568 32736 18688 34560
3159 36352 36736 32736 18688 34560
3160 38336 39168 32736 22624 34032
3161 39296 39744 32736 22624 34032
3162 43008 43456 32736 22624 34032
3163 43584 42240 32736 22624 34032
3164 43776 40576 32736 22624 34032
3165 40256 36544 32736 22624 34032
3166 37696 32512 32736 22624 34032
3167 43840 38784 32736 22624 34032
3168 48000 39360 32736 22624 34032
3169 46336 39936 32736 22624 34032
3170 48320 44288 32736 22624 34032
3171 45376 42880 32736 22624 34032
3172 45696 44224 32736 22624 34032
3173 40256 42880 32736 22624 34032
3174 38016 43008 32736 22624 34032
3175 36224 42688 32736 22624 34032
3176 33408 40768 32736 22624 34032
3177 28928 36608 32736 22624 34032
3178 34112 42688 32736 22624 34032
3179 36800 44928 32736 22624 34032
3180 36928 45376 32528 23472 32944
3181 37824 45888 32528 23472 32944
3182 31872 41920 32528 23472 32944
3183 36672 43776 32528 23472 32944
3184 35648 42304 32528 23472 32944
3185 33280 38848 32528 23472 32944
3186 27328 33280 32528 23472 32944
3187 31680 39808 32528 23472 32944
3188 39168 46848 32528 23472 32944
3189 35776 43200 32528 23472 32944
3190 33088 41536 33952 18720 31104
3191 30144 38080 33952 18720 31104
3192 27520 37120 33952 18720 31104
3193 34368 42048 33952 18720 31104
3194 32832 40320 33952 18720 31104
3195 25600 35264 33952 18720 31104
3196 24320 33152 33952 18720 31104
3197 31232 39360 33952 18720 31104
3198 27840 34944 33952 18720 31104
3199 28224 35264 33952 18720 31104
3200 27776 33792 33600 22864 30448
3201 27520 34560 33600 22864 30448
3202 28160 34944 33600 22864 30448
3203 26048 33088 33600 22864 30448
3204 20800 28992 33600 22864 30448
3205 20352 30080 33600 22864 30448
3206 17536 29760 33600 22864 30448
3207 19904 32960 33600 22864 30448
3208 19584 31680 33600 22864 30448
3209 15744 31168 33600 22864 30448
3210 15616 32064 32464 25840 30176
3211 19456 32448 32464 25840 30176
3212 15168 27712 32464 25840 30176
3213 12288 27072 32464 25840 30176
3214 15168 29952 32464 25840 30176
3215 17920 31552 32464 25840 30176
3216 14848 26432 32464 25840 30176
3217 12608 23808 32464 25840 30176
3218 15616 23872 32464 25840 30176
3219 33792 30848 32464 25840 30176
3220 37888 25984 35616 25760 35264
3221 41280 23808 35616 25760 35264
3222 25216 22720 35616 25760 35264
3223 11648 20480 35616 25760 35264
3224  1856 18944 35616 25760 35264
3225   320 14656 35616 25760 35264
3226 14016 25792 35616 25760 35264
3227  9728 20800 35616 25760 35264
3228  8448 20608 35616 25760 35264
3229  8896 23616 35616 25760 35264
3230  4800 20288 35616 25760 35264
3231  3904 19712 35616 25760 35264
3232   768 16512 35616 25760 35264
3233  1088 17664 35616 25760 35264
3234   256 14720 35616 25760 35264
3235    64 14912 35616 25760 35264
3236  4352 19904 35616 25760 35264
3237  5504 19136 35616 25760 35264
3238  4992 18624 35616 25760 35264
3239  4800 22016 35616 25760 35264
3240  4096 18432 35552 22304 34224
3241  4160 17408 35552 22304 34224
3242  5376 16256 35552 22304 34224
3243  4352 15488 35552 22304 34224
3244  2496 13376 35552 22304 34224
3245  3200 12736 35552 22304 34224
3246  7744 15936 35552 22304 34224
3247  8192 15424 35552 22304 34224
3248 11520 18368 35552 22304 34224
3249  7488 15424 35552 22304 34224
3250  3584 13824 37088 23184 34832
3251  3392 14144 37088 23184 34832
3252   832 12672 37088 23184 34832
3253   128 10560 37088 23184 34832
3254    64  8128 37088 23184 34832
3255    64 10944 37088 23184 34832
3256    64 13504 37088 23184 34832
3257    64 19136 37088 23184 34832
3258    64 18688 37088 23184 34832
3259    64 12672 37088 23184 34832
3260    64 10752 30048 26496 31712
3261    64 18048 30048 26496 31712
3262    64 16704 30048 26496 31712
3263    64 14912 30048 26496 31712
3264    64 11328 30048 26496 31712
3265    64  9408 30048 26496 31712
3266    64 14720 30048 26496 31712
3267    64 13824 30048 26496 31712
3268    64 16256 30048 26496 31712
3269    64 14976 30048 26496 31712
3270    64 13056 30048 26496 31712
3271    64 13120 30048 26496 31712
3272    64  8192 30048 26496 31712
3273    64  9088 30048 26496 31712
3274    64  9088 30048 26496 31712
3275    64 10880 30048 26496 31712
3276    64 11008 30048 26496 31712
3277    64 11968 30048 26496 31712
3278    64 10176 30048 26496 31712
3279    64 10880 30048 26496 31712
3280  1472 17216 34976 27744 34560
3281  6464 18624 34976 27744 34560
3282  3392 16512 34976 27744 34560
3283  3136 16576 34976 27744 34560
3284  3072 17664 34976 27744 34560
3285  1152 17216 34976 27744 34560
3286   128 14528 34976 27744 34560
3287    64  9856 34976 27744 34560
3288    64 12224 34976 27744 34560
3289  6080 18944 34976 27744 34560
3290  2432 20864 34128 28128 30240
3291  1088 19968 34128 28128 30240
3292   128 18688 34128 28128 30240
3293    64 18112 34128 28128 30240
3294    64 17984 34128 28128 30240
3295    64 15232 34128 28128 30240
3296    64 12160 34128 28128 30240
3297    64 19456 34128 28128 30240
3298    64 13696 34128 28128 30240
3299  1472 21632 34128 28128 30240
3300 12800 21824 33216 25024 33824
3301 18240 18944 33216 25024 33824
3302 22016 21056 33216 25024 33824
3303  5184 18240 33216 25024 33824
3304   448 17792 33216 25024 33824
3305   128 19456 33216 25024 33824
3306    64 17472 33216 25024 33824
3307  5184 20480 33216 25024 33824
3308  3456 20736 33216 25024 33824
3309  1408 18112 33216 25024 33824
3310  1856 19392 34640 25680 34400
3311   512 16640 34640 25680 34400
3312  3776 20288 34640 25680 34400
3313  5760 21504 34640 25680 34400
3314  7680 22272 34640 25680 34400
3315  5504 20288 34640 25680 34400
3316  5120 19200 34640 25680 34400
3317  5440 18880 34640 25680 34400
3318  3264 16960 34640 25680 34400
3319  3136 16128 34640 25680 34400
3320   256 11712 35120 26832 35008
3321 13888 27328 35120 26832 35008
3322 13696 27456 35120 26832 35008
3323 11968 24192 35120 26832 35008
3324 11904 24512 35120 26832 35008
3325 13696 25344 35120 26832 35008
3326 12864 24320 35120 26832 35008
3327 13504 22272 35120 26832 35008
3328 10432 19968 35120 26832 35008
3329 12288 20544 35120 26832 35008
3330 18560 26752 35120 26832 35008
3331 14080 24064 35120 26832 35008
3332 11520 22528 35120 26832 35008
3333 17600 29056 35120 26832 35008
3334 15232 27328 35120 26832 35008
3335 10240 24576 35120 26832 35008
3336 18176 32000 35120 26832 35008
3337 11520 27072 35120 26832 35008
3338 11776 28288 35120 26832 35008
3339  8640 25728 35120 26832 35008
3340 10560 26688 35904 26176 35296
3341  7232 25088 35904 26176 35296
3342  8960 27584 35904 26176 35296
3343 15680 33600 35904 26176 35296
3344 11200 27136 35904 26176 35296
3345  8192 25344 35904 26176 35296
3346 20608 35968 35904 26176 35296
3347 14272 30720 35904 26176 35296
3348  7360 25088 35904 26176 35296
3349 17344 35648 35904 26176 35296
3350 16896 34624 35760 26304 35168
3351 12160 31616 35760 26304 35168
3352 12864 33664 35760 26304 35168
3353 10816 32576 35760 26304 35168
3354 10560 32704 35760 26304 35168
3355 11200 32640 35760 26304 35168
3356 11328 32384 35760 26304 35168
3357 16064 37184 35760 26304 35168
3358 17088 37504 35760 26304 35168
3359 18048 39040 35760 26304 35168
3360 19520 41728 35840 26816 36080
3361 17920 40448 35840 26816 36080
3362 18880 39808 35840 26816 36080
3363 17088 36800 35840 26816 36080
